Data from Absorbance__5__15-30-43-724.txt Node

Date: Wed Oct 23 15:30:43 PDT 2024
User: labuser
Spectrometer: USB2G46211
Trigger mode: 4
Integration Time (sec): 2.000000E-2
Scans to average: 1
Electric dark correction enabled: true
Nonlinearity correction enabled: false
Boxcar width: 0
XAxis mode: Wavelengths
Number of Pixels in Spectrum: 2048
>>>>>Begin Spectral Data<<<<<
180.84016	0.62839
181.20826	-0.2264
181.57633	0.19033
181.94438	-0.53298
182.3124	-0.2264
182.68041	0.09691
183.0484	-0.90309
183.41636	-0.03218
183.78431	0.81291
184.15223	0.07789
184.52013	-0
184.88801	-0
185.25586	-0
185.6237	-0
185.99151	-0
186.35931	-0.30103
186.72708	0.22494
187.09483	-0.06908
187.46256	-1.30103
187.83027	-1.30103
188.19795	-0
188.56562	-0
188.93326	0.86034
189.30088	-0
189.66848	0.43933
190.03606	-0.07525
190.40361	0.12832
190.77115	-0.30103
191.13866	0.08981
191.50615	0.38917
191.87362	0.28018
192.24107	0.23045
192.60849	0.7515
192.9759	0.49485
193.34328	0.19866
193.71064	0.84064
194.07798	1.62839
194.4453	0.54407
194.81259	-0
195.17987	0.4804
195.54712	0.40351
195.91435	0.35562
196.28156	0.6324
196.64874	0.63786
197.01591	0.4198
197.38305	-0
197.75017	0.6421
198.11727	0.51936
198.48434	2.03543
198.8514	0.64933
199.21843	0.61278
199.58544	0.68305
199.95243	1.28684
200.31939	0.84346
200.68634	-0
201.05326	0.80833
201.42016	1.27712
201.78703	0.86034
202.15389	-0
202.52072	1.04508
202.88753	0.73524
203.25432	0.85854
203.62109	1.2418
203.98783	0.80932
204.35456	0.67722
204.72126	0.79307
205.08793	0.89321
205.45459	1.31069
205.82122	0.94939
206.18783	0.81585
206.55442	1.1877
206.92099	1.04939
207.28753	0.7742
207.65405	0.9211
208.02055	1.05984
208.38703	1.05767
208.75348	0.93761
209.11991	1.25603
209.48632	1.18139
209.85271	1.08849
210.21907	1.24823
210.58541	1.47784
210.95173	0.94701
211.31803	1.27452
211.6843	0.95844
212.05055	-0
212.41678	0.9887
212.78298	1.06914
213.14917	1.95844
213.51533	1.06347
213.88147	1.12616
214.24758	0.87696
214.61367	1.3419
214.97974	1.5455
215.34579	-0
215.71182	1.22908
216.07782	2.04873
216.4438	1.57846
216.80975	1.49615
217.17569	1.67071
217.5416	1.71054
217.90748	2.708
218.27335	1.16939
218.63919	1.21085
219.00501	1.89723
219.3708	1.02868
219.73658	1.37181
220.10233	-0
220.46805	1.58299
220.83376	1.26405
221.19944	1.29427
221.5651	1.47349
221.93073	1.25364
222.29634	1.51702
222.66193	1.51881
223.0275	1.64988
223.39304	1.19033
223.75856	1.62839
224.12406	1.70624
224.48953	1.47113
224.85498	1.34852
225.22041	1.77843
225.58581	1.59434
225.95119	1.68005
226.31655	1.56656
226.68189	1.57772
227.0472	1.70102
227.41249	1.30828
227.77775	1.36239
228.14299	1.71578
228.50821	1.70914
228.8734	1.37685
229.23857	1.75487
229.60372	1.6912
229.96885	1.35569
230.33395	1.3851
230.69903	1.35766
231.06408	1.24284
231.42911	1.20282
231.79412	1.26822
232.1591	1.27447
232.52406	1.2225
232.889	1.19492
233.25391	1.22691
233.6188	1.09113
233.98367	1.09994
234.34851	1.04674
234.71333	1.03125
235.07813	0.98013
235.4429	0.96669
235.80765	0.88456
236.17237	0.86595
236.53707	0.93809
236.90175	0.83242
237.2664	0.83841
237.63103	0.77916
237.99564	0.76113
238.36022	0.76069
238.72478	0.69775
239.08931	0.68965
239.45382	0.6727
239.81831	0.62322
240.18277	0.61566
240.54721	0.60825
240.91163	0.58686
241.27602	0.54601
241.64039	0.55908
242.00473	0.5315
242.36905	0.496
242.73335	0.46831
243.09762	0.46599
243.46187	0.45577
243.82609	0.46844
244.19029	0.41787
244.55447	0.4317
244.91862	0.39382
245.28275	0.40038
245.64685	0.36396
246.01093	0.35047
246.37499	0.34568
246.73902	0.34964
247.10303	0.32842
247.46701	0.32184
247.83097	0.29719
248.1949	0.26802
248.55882	0.28896
248.9227	0.26617
249.28656	0.24679
249.6504	0.2489
250.01422	0.24667
250.37801	0.25325
250.74177	0.24172
251.10551	0.23637
251.46923	0.21186
251.83292	0.22638
252.19659	0.21153
252.56023	0.20427
252.92385	0.19916
253.28744	0.19286
253.65101	0.18632
254.01456	0.18062
254.37808	0.18425
254.74158	0.16153
255.10505	0.1854
255.4685	0.17752
255.83192	0.1798
256.19532	0.15956
256.55869	0.1635
256.92204	0.17115
257.28537	0.17794
257.64867	0.15583
258.01195	0.14803
258.3752	0.14737
258.73842	0.13721
259.10162	0.13988
259.4648	0.11663
259.82795	0.11813
260.19108	0.10355
260.55418	0.1128
260.91726	0.09196
261.28032	0.09813
261.64334	0.09958
262.00635	0.07639
262.36933	0.09334
262.73228	0.09188
263.09521	0.08292
263.45812	0.08943
263.821	0.09724
264.18385	0.08426
264.54668	0.07667
264.90948	0.05558
265.27226	0.07022
265.63502	0.05367
265.99775	0.05848
266.36045	0.03506
266.72313	0.04604
267.08579	0.03744
267.44842	0.0325
267.81102	0.03343
268.1736	0.00833
268.53616	0.01297
268.89869	0.00912
269.26119	-0.00329
269.62367	0.00312
269.98613	0.00234
270.34855	-0.00134
270.71096	-0.02638
271.07334	-0.01828
271.43569	-0.02243
271.79802	-0.01907
272.16032	-0.01624
272.5226	-0.02766
272.88485	-0.01529
273.24708	-0.02434
273.60928	-0.02468
273.97146	-0.02325
274.33361	-0.02831
274.69573	-0.02249
275.05783	-0.02024
275.41991	-0.02534
275.78196	-0.01723
276.14398	-0.0197
276.50598	-0.01752
276.86795	-0.02237
277.2299	-0.02174
277.59182	-0.01697
277.95372	-0.01714
278.31559	-0.01962
278.67743	-0.03038
279.03925	-0.01888
279.40105	-0.01813
279.76282	-0.01951
280.12456	-0.02391
280.48628	-0.01934
280.84797	-0.02757
281.20964	-0.00714
281.57128	-0.02469
281.93289	-0.00789
282.29448	-0.01981
282.65604	-0.01045
283.01758	-0.01282
283.37909	-0.01011
283.74058	-0.01347
284.10204	-0.01467
284.46348	-0.01255
284.82488	-0.00448
285.18627	-0.00996
285.54762	-0.00864
285.90896	-0.01668
286.27026	-0.01073
286.63154	-0.00107
286.99279	-0.00642
287.35402	0.00525
287.71522	-0.00352
288.0764	-0.00055
288.43755	0.00518
288.79867	0.00697
289.15977	0.00239
289.52084	0.00752
289.88189	-0.00919
290.24291	0.00797
290.6039	-0.00055
290.96487	0.00722
291.32581	0.00585
291.68672	0.00514
292.04761	0.014
292.40848	0.0141
292.76931	0.0041
293.13012	0.00935
293.49091	0.00369
293.85167	0.00218
294.2124	0.01005
294.5731	0.01803
294.93378	0.01284
295.29443	0.01595
295.65506	0.01033
296.01566	0.01204
296.37624	0.02165
296.73678	0.02955
297.09731	0.02325
297.4578	0.0133
297.81827	0.02217
298.17871	0.02075
298.53913	0.01153
298.89952	0.01881
299.25988	0.01674
299.62021	0.01082
299.98052	0.01349
300.34081	0.01787
300.70106	0.01556
301.06129	0.01908
301.4215	0.02354
301.78168	0.01274
302.14183	0.02025
302.50195	0.01931
302.86205	0.01855
303.22212	0.02564
303.58216	0.01953
303.94218	0.02435
304.30217	0.01816
304.66213	0.02092
305.02207	0.0262
305.38198	0.01157
305.74186	0.02395
306.10172	0.02101
306.46155	0.02581
306.82135	0.01327
307.18113	0.02558
307.54088	0.01803
307.9006	0.03523
308.2603	0.02723
308.61997	0.01925
308.97961	0.02026
309.33923	0.02006
309.69881	0.01762
310.05838	0.02542
310.41791	0.02816
310.77742	0.01997
311.1369	0.02509
311.49635	0.03092
311.85578	0.02135
312.21518	0.02121
312.57455	0.02577
312.93389	0.02611
313.29321	0.03003
313.6525	0.03298
314.01177	0.02518
314.371	0.02305
314.73021	0.02695
315.0894	0.02255
315.44855	0.01993
315.80768	0.02421
316.16678	0.02245
316.52585	0.02414
316.8849	0.02843
317.24392	0.0316
317.60291	0.02793
317.96187	0.02883
318.32081	0.02532
318.67972	0.02766
319.0386	0.01816
319.39746	0.01801
319.75629	0.03161
320.11509	0.02902
320.47386	0.0195
320.8326	0.02728
321.19132	0.01588
321.55001	0.02202
321.90867	0.02759
322.26731	0.01689
322.62592	0.01631
322.9845	0.01082
323.34305	0.02388
323.70158	0.02742
324.06007	0.02814
324.41854	0.0292
324.77699	0.02842
325.1354	0.01561
325.49379	0.01378
325.85215	0.02338
326.21048	0.02176
326.56878	0.02268
326.92706	0.02164
327.28531	0.01064
327.64353	0.0152
328.00172	0.02129
328.35989	0.01269
328.71803	0.01971
329.07614	0.02516
329.43422	0.02495
329.79227	0.02968
330.1503	0.01944
330.5083	0.0198
330.86627	0.01338
331.22421	0.0241
331.58213	0.02134
331.94001	0.02143
332.29787	0.02245
332.6557	0.02916
333.01351	0.01424
333.37128	0.02294
333.72903	0.01288
334.08675	0.01816
334.44444	0.00922
334.8021	0.01783
335.15974	0.0227
335.51734	0.01446
335.87492	0.01869
336.23247	0.0188
336.58999	0.01674
336.94749	0.00531
337.30495	0.01002
337.66239	0.01975
338.0198	0.01288
338.37718	0.00073
338.73453	0.00196
339.09186	0.01245
339.44916	0.02675
339.80642	0.01967
340.16366	0.01008
340.52088	0.01741
340.87806	0.01347
341.23521	0.015
341.59234	0.0098
341.94944	0.0186
342.30651	0.01196
342.66355	0.01042
343.02056	0.0087
343.37755	0.01173
343.7345	0.01067
344.09143	0.00477
344.44833	0.01357
344.8052	0.01907
345.16204	0.00272
345.51885	0.01244
345.87564	0.00397
346.2324	0.01231
346.58912	-0.0021
346.94582	0.00192
347.30249	-0.00456
347.65913	0.01078
348.01575	0.01627
348.37233	0.00493
348.72889	-0.00089
349.08541	0.00975
349.44191	0.00356
349.79838	0.00115
350.15482	-0.00173
350.51124	0.02017
350.86762	0.00781
351.22397	0.01229
351.5803	0.00115
351.9366	0.00203
352.29286	0.00816
352.6491	0.00855
353.00531	0.00575
353.36149	0.0029
353.71765	0.00077
354.07377	0.00707
354.42986	0.0076
354.78593	0.00499
355.14197	0.01036
355.49797	0.00321
355.85395	0.00698
356.2099	-0.00253
356.56582	-0.01144
356.92171	0.00411
357.27757	0.00699
357.63341	-0.01007
357.98921	0.00776
358.34499	-0.0034
358.70073	0.01133
359.05645	0.01062
359.41214	0.00373
359.76779	-0.00175
360.12342	-0.00619
360.47902	0.00886
360.83459	-0.00048
361.19014	0.00657
361.54565	-0.00378
361.90113	-0.00675
362.25658	0.00076
362.61201	-0.00216
362.9674	0.00495
363.32277	-0.0103
363.6781	0.00239
364.03341	-0.00333
364.38869	0.01021
364.74393	0.00447
365.09915	0.00737
365.45434	-0.00794
365.8095	-0.00696
366.16463	0.01505
366.51973	-0.00557
366.8748	0.00699
367.22984	0.00269
367.58486	0.00236
367.93984	-0.0017
368.29479	0.00597
368.64971	0.0151
369.00461	0.00073
369.35947	-0.00379
369.71431	0.01206
370.06911	0.00405
370.42388	0.00917
370.77863	0.00889
371.13335	0.0062
371.48803	-0.00048
371.84269	0.00598
372.19731	-0.00453
372.55191	0.01137
372.90648	0.00557
373.26101	0.00647
373.61552	-0.00574
373.97	-0.00645
374.32444	-0.00285
374.67886	-0.00168
375.03325	0.00192
375.38761	-0.00007
375.74193	-0.0025
376.09623	0.00073
376.4505	-0.00046
376.80474	0.00788
377.15895	0.00579
377.51312	0.00349
377.86727	0.00716
378.22139	-0.00314
378.57548	0.00555
378.92953	0.00583
379.28356	0.00411
379.63756	0.00221
379.99153	-0.00045
380.34546	0.00187
380.69937	0.01349
381.05325	0.00428
381.4071	0.00532
381.76091	-0.00046
382.1147	0.00908
382.46845	-0.00162
382.82218	0.0076
383.17588	0.00902
383.52954	0.00113
383.88318	0.01087
384.23678	0.00192
384.59036	0.00915
384.9439	0.00152
385.29741	-0.00046
385.6509	0.00272
386.00435	-0.00476
386.35777	0.00676
386.71116	0.00424
387.06453	0.00937
387.41786	0.00537
387.77116	0.00971
388.12443	-0.00158
388.47767	0.01044
388.83088	0.00106
389.18406	0.00413
389.5372	0.00695
389.89032	-0.00668
390.24341	-0.0024
390.59647	0.00304
390.94949	0.0101
391.30249	0.00255
391.65545	0.00368
392.00838	0.01041
392.36129	0.00061
392.71416	0.00804
393.067	0.00384
393.41981	0.00939
393.77259	-0.00686
394.12534	0.01354
394.47806	0.00182
394.83075	0.00252
395.18341	0.00291
395.53603	0.00297
395.88863	0.0043
396.24119	0.00792
396.59373	0.00406
396.94623	0.01217
397.2987	0.01034
397.65114	0.00338
398.00355	-0.00409
398.35593	-0.00039
398.70828	0.00917
399.0606	-0.00498
399.41288	0.00448
399.76514	0.0044
400.11736	0.00749
400.46956	0.0098
400.82172	0.01126
401.17385	0.00297
401.52595	0.00533
401.87802	0.0079
402.23005	-0.00081
402.58206	-0.00474
402.93404	0.00517
403.28598	-0.00478
403.63789	-0.0044
403.98978	0.00697
404.34163	0.00748
404.69344	0.00338
405.04523	0.01353
405.39699	0.00935
405.74871	0.01036
406.10041	0.01198
406.45207	0.00147
406.8037	-0.00046
407.1553	0.00745
407.50687	0.00523
407.85841	0.00613
408.20991	0.0024
408.56139	0.00256
408.91283	-0.0016
409.26424	0.00532
409.61562	-0.00046
409.96697	0.02616
410.31829	0.00293
410.66957	0.00748
411.02083	0.00231
411.37205	0.01018
411.72324	0.00294
412.0744	0.00822
412.42553	0.00664
412.77662	0.01106
413.12769	0.00069
413.47872	0.00069
413.82972	-0.00006
414.18069	0.0014
414.53163	0.00453
414.88254	-0.00853
415.23341	-0.00528
415.58425	0.00677
415.93506	0.00214
416.28584	0.0026
416.63659	0.00861
416.98731	-0.00548
417.33799	0.00902
417.68864	0.00511
418.03926	0.0019
418.38985	0.01129
418.7404	0.00105
419.09093	0.0133
419.44142	0.0007
419.79188	-0.0029
420.14231	0.0116
420.49271	-0.00314
420.84307	0.00465
421.1934	0.02355
421.5437	0.00255
421.89397	0.01146
422.24421	0.01339
422.59441	0.00621
422.94458	0.00399
423.29472	0.00559
423.64483	0.00737
423.99491	0.00029
424.34495	0.01541
424.69496	-0.00313
425.04494	0.00101
425.39489	-0.00311
425.7448	0.01117
426.09469	0.00257
426.44454	0.00416
426.79436	0.01005
427.14414	0.00766
427.49389	-0.00224
427.84362	0.0007
428.1933	0.00627
428.54296	0.00213
428.89259	0.00377
429.24218	0.008
429.59174	-0.00137
429.94126	0.00695
430.29076	0.00473
430.64022	0.00677
430.98965	0.0075
431.33905	0.01437
431.68841	0.00387
432.03774	0.00829
432.38704	0.01642
432.73631	0.00675
433.08555	0.00462
433.43475	0.00736
433.78392	0.00716
434.13305	0.00565
434.48216	0.00644
434.83123	0.00812
435.18027	0.00261
435.52927	0.00713
435.87825	0.00807
436.22719	0.00532
436.5761	0.00292
436.92497	-0.00006
437.27382	0.01091
437.62263	0.00139
437.9714	0.00601
438.32015	0.0102
438.66886	0.00469
439.01754	0.00711
439.36618	0.00587
439.7148	0.01359
440.06338	0.00549
440.41192	0.00905
440.76044	0.00371
441.10892	0.00831
441.45737	0.01243
441.80578	0.00387
442.15417	0.00785
442.50252	0.01716
442.85083	-0.0004
443.19912	0.01383
443.54737	0.00948
443.89558	0.01124
444.24377	0.01089
444.59192	0.0003
444.94004	0.00539
445.28812	0.01158
445.63617	0.00933
445.98419	0.0072
446.33218	0.00914
446.68013	0.00379
447.02805	0.01268
447.37594	0.00718
447.72379	0.00545
448.07161	0.00141
448.41939	0.01917
448.76715	0.00793
449.11487	0.00142
449.46255	0.01117
449.81021	0.01225
450.15783	0.00613
450.50541	0.0022
450.85296	0.00954
451.20048	0.01809
451.54797	0.01303
451.89542	0.00375
452.24284	0.00725
452.59023	0.0153
452.93758	0.01262
453.2849	0.00571
453.63218	0.00657
453.97944	0.01083
454.32665	-0.00006
454.67384	0.01067
455.02099	0.00075
455.36811	0.01342
455.71519	0.00414
456.06224	0.01514
456.40926	0.01233
456.75624	-0.00048
457.10319	0.0065
457.45011	0.00225
457.79699	0.01203
458.14384	0.01754
458.49065	0.00941
458.83743	0.00835
459.18418	-0.00172
459.53089	0.00626
459.87757	0.01375
460.22422	0.00151
460.57083	0.01219
460.91741	0.00642
461.26395	0.00161
461.61046	0.0032
461.95694	0.00947
462.30338	0.01325
462.64979	0.0044
462.99616	0.01072
463.3425	0.00872
463.68881	0.00444
464.03508	0.00604
464.38132	0.01189
464.72753	0.01425
465.0737	0.01555
465.41983	0.00907
465.76593	-0.00077
466.112	0.00347
466.45804	0.01482
466.80404	0.00386
467.15	0.00479
467.49593	0.01198
467.84183	0.01872
468.1877	0.00405
468.53353	0.01018
468.87932	0.00859
469.22508	0.00879
469.57081	0.00984
469.9165	0.00796
470.26216	0.01567
470.60778	-0.00082
470.95337	0.01006
471.29893	0.0106
471.64445	0.00797
471.98993	0.01289
472.33538	-0.00386
472.6808	0.0034
473.02619	0.00588
473.37153	0.0082
473.71685	0.00216
474.06213	0.00378
474.40737	0.00873
474.75258	0.00703
475.09776	-0.0025
475.4429	0.0142
475.78801	0.00949
476.13308	0.01299
476.47812	-0.00396
476.82312	0.01775
477.16809	0.01112
477.51303	0.0062
477.85793	0.00431
478.20279	0.00687
478.54762	0.00751
478.89242	0.00694
479.23718	0.00843
479.5819	0.00433
479.9266	0.00106
480.27125	-0.00088
480.61587	0.00598
480.96046	0.00231
481.30501	0.00561
481.64953	0.00765
481.99401	0.01042
482.33846	0.01096
482.68288	0.00547
483.02725	0.00619
483.3716	0.01035
483.7159	0.00666
484.06018	0.00537
484.40442	0.005
484.74862	0.0037
485.09279	-0.00027
485.43692	0.00565
485.78102	0.00637
486.12508	0.00336
486.46911	0.00734
486.81311	0.00111
487.15706	0.00773
487.50099	0.00983
487.84488	0.00674
488.18873	0.00755
488.53255	0.01004
488.87633	0.00246
489.22008	0.01182
489.56379	0.0122
489.90747	0.00688
490.25111	0.00992
490.59471	0.01242
490.93829	0.00509
491.28182	0.00802
491.62532	0.00872
491.96879	0.00202
492.31222	0.00748
492.65561	0.00976
492.99897	0.01774
493.3423	0.00921
493.68559	0.01028
494.02884	0.00308
494.37206	0.00225
494.71524	0.00974
495.05839	0.00824
495.4015	0.006
495.74458	-0.00075
496.08762	0.00848
496.43062	0.00246
496.77359	0.00622
497.11653	0.002
497.45942	0.00999
497.80229	0.00331
498.14511	0.00533
498.48791	-0.00004
498.83066	0.01145
499.17338	0.00546
499.51607	-0.00272
499.85872	0.00945
500.20133	0.00307
500.54391	0.00941
500.88645	0.01097
501.22896	0.00919
501.57143	0.00653
501.91386	0.0079
502.25626	0.01057
502.59862	0.01013
502.94095	0.00477
503.28324	0.00731
503.6255	0.01404
503.96772	0.00979
504.3099	0.01048
504.65205	0.00125
504.99416	0.00725
505.33624	0.01354
505.67828	0.00101
506.02028	0.0105
506.36225	-0.00084
506.70419	0.00397
507.04608	0.00422
507.38794	-0.00244
507.72977	-0.00004
508.07155	-0.00165
508.41331	0.0057
508.75502	0.00862
509.0967	0.01522
509.43835	0.00345
509.77995	0.00372
510.12153	0.00893
510.46306	0.00563
510.80456	0.00788
511.14602	0.00457
511.48745	0.00924
511.82884	0.00214
512.17019	0.00517
512.51151	-0.00255
512.85279	0.00386
513.19404	0.00418
513.53525	0.00167
513.87642	0.00949
514.21756	0.00375
514.55866	0.00229
514.89972	0.00675
515.24075	-0.00708
515.58174	0.01072
515.92269	0.00716
516.26361	0.00372
516.60449	0.00262
516.94534	0.0109
517.28615	0.00354
517.62692	0.00548
517.96765	0.00434
518.30835	0.002
518.64902	-0.00005
518.98964	-0.00685
519.33023	-0.00095
519.67078	0.00026
520.0113	-0.00189
520.35178	0.00475
520.69222	0.01309
521.03263	0.00395
521.373	-0.00223
521.71333	0.01082
522.05363	-0.00069
522.39388	0.00245
522.73411	0.00241
523.07429	0.01177
523.41444	0.00859
523.75455	0.00523
524.09463	-0.00005
524.43467	0.00026
524.77467	0.0073
525.11463	-0.00005
525.45456	-0.00618
525.79445	0.00402
526.13431	0.00797
526.47412	-0.0016
526.8139	-0.00729
527.15365	-0.00412
527.49335	0.00026
527.83302	0.01282
528.17265	0.00738
528.51225	0.00241
528.85181	0.00393
529.19133	0.00393
529.53081	-0.0059
529.87026	-0.00621
530.20967	-0.00157
530.54904	0.00307
530.88838	-0.00161
531.22767	0.00303
531.56694	0.00791
531.90616	0.01241
532.24535	-0.00128
532.5845	0.01269
532.92361	0.00237
533.26268	0.00613
533.60172	-0.00268
533.94072	-0.00151
534.27968	-0.00619
534.61861	0.00024
534.9575	0.002
535.29635	-0.0033
535.63516	-0.00689
535.97394	-0.00154
536.31268	0.00498
536.65138	0.00578
536.99004	0.00343
537.32867	0.01125
537.66726	-0.00119
538.00581	0.00649
538.34433	0.00697
538.6828	0.00221
539.02124	-0.00117
539.35964	-0.00458
539.69801	-0.01439
540.03633	0.00952
540.37462	-0.00005
540.71287	0.00555
541.05109	0.00792
541.38926	0.0056
541.7274	-0.01066
542.0655	-0.0009
542.40357	-0.00033
542.74159	-0.00458
543.07958	0.00191
543.41753	-0.00313
543.75544	-0.00196
544.09332	-0.00889
544.43115	-0.00032
544.76895	0.00079
545.10671	0.00604
545.44444	-0.00228
545.78212	-0.00506
546.11977	-0.00604
546.45738	0.00076
546.79495	-0.00214
547.13248	0.00178
547.46998	0.00581
547.80744	0.00022
548.14486	-0.00386
548.48224	-0.00167
548.81958	0.00301
549.15689	-0.00115
549.49415	-0.00693
549.83138	0.00555
550.16858	-0.00396
550.50573	-0.00726
550.84285	-0.00086
551.17992	-0.00059
551.51696	-0.00331
551.85396	0.00426
552.19093	-0.00193
552.52785	0.00022
552.86474	0.0029
553.20159	0.00131
553.5384	-0.0054
553.87517	-0.00506
554.2119	-0.01188
554.5486	-0.00628
554.88525	0.00205
555.22187	-0.00563
555.55845	-0.00273
555.895	0.00379
556.2315	-0.00277
556.56796	-0.00086
556.90439	-0.00336
557.24078	-0.00458
557.57713	-0.00318
557.91344	-0.00578
558.24972	0.00139
558.58595	-0.00623
558.92215	-0.01351
559.2583	0.00133
559.59442	-0.0057
559.9305	0.00129
560.26655	-0.00214
560.60255	0.00621
560.93852	-0.00474
561.27444	0.00073
561.61033	0.00048
561.94618	-0.00885
562.28199	-0.00731
562.61776	-0.00259
562.9535	0.00047
563.28919	0.00232
563.62485	0.0026
563.96046	0.00498
564.29604	-0.00949
564.63158	-0.00598
564.96708	-0.0033
565.30254	-0.01128
565.63797	-0.00919
565.97335	0.0005
566.3087	-0.00086
566.64401	-0.00625
566.97927	0.00102
567.3145	0.00101
567.64969	0.00047
567.98484	-0.00483
568.31996	-0.00496
568.65503	0.00044
568.99006	-0.0024
569.32506	-0.00391
569.66002	-0.00393
569.99493	-0.00112
570.32981	0.0036
570.66465	0.00303
570.99945	-0.00656
571.33421	-0.00106
571.66893	0.0037
572.00362	-0.00065
572.33826	0.00096
572.67287	-0.00279
573.00743	0.00306
573.34196	0.00301
573.67644	-0.00876
574.01089	-0.00246
574.3453	-0.00304
574.67967	-0.00426
575.014	0.00092
575.34829	-0.00195
575.68254	-0.00213
576.01676	-0.00096
576.35093	-0.00743
576.68506	-0.00156
577.01916	-0.00311
577.35321	-0.00608
577.68723	-0.00441
578.0212	-0.00863
578.35514	-0.0041
578.68904	-0.00322
579.0229	-0.00285
579.35671	0.00123
579.69049	-0.00073
580.02423	0.00214
580.35793	0.00307
580.69159	-0.00077
581.02521	-0.00276
581.35879	0.00249
581.69234	-0.0015
582.02584	-0.00777
582.3593	-0.00178
582.69272	-0.00578
583.02611	-0.00222
583.35945	-0.00253
583.69275	-0.00538
584.02602	-0.00069
584.35924	-0.00595
584.69243	-0.00807
585.02557	0.00014
585.35868	-0.00627
585.69174	-0.00143
586.02477	-0.00569
586.35775	-0.00126
586.6907	-0.00297
587.02361	-0.00799
587.35647	0.00154
587.6893	-0.00164
588.02209	-0.0015
588.35483	-0.00659
588.68754	-0.00447
589.02021	-0.01061
589.35283	-0.00336
589.68542	-0.003
590.01797	0.00098
590.35047	-0.0039
590.68294	-0.00673
591.01537	-0.00462
591.34775	-0.00438
591.6801	-0.004
592.01241	-0.00271
592.34467	-0.00436
592.6769	-0.00247
593.00909	0.00051
593.34123	-0.00948
593.67334	-0.00812
594.00541	-0.00338
594.33743	-0.00699
594.66942	-0.00794
595.00136	-0.00237
595.33327	-0.00425
595.66513	-0.00864
595.99696	-0.00882
596.32874	-0.00474
596.66048	-0.00598
596.99219	-0.00612
597.32385	-0.00173
597.65547	0.00302
597.98706	-0.00578
598.3186	-0.00308
598.6501	0.00165
598.98156	-0.00545
599.31298	-0.00398
599.64436	-0.00373
599.9757	-0.00617
600.307	-0.00434
600.63826	-0.00486
600.96948	-0.00407
601.30066	-0.00814
601.63179	-0.00572
601.96289	-0.00563
602.29395	-0.0054
602.62496	-0.00693
602.95594	-0.00337
603.28687	-0.00096
603.61776	-0.00435
603.94862	-0.00837
604.27943	-0.00487
604.6102	-0.00399
604.94093	-0.00254
605.27162	-0.00355
605.60227	-0.00443
605.93288	-0.0009
606.26345	-0.00071
606.59398	-0.00396
606.92446	0.00049
607.25491	-0.00408
607.58531	-0.00693
607.91568	-0.0043
608.246	-0.00515
608.57628	-0.00695
608.90652	-0.01096
609.23672	-0.00368
609.56688	0.00153
609.897	-0.00426
610.22708	-0.0094
610.55711	-0.00345
610.88711	-0.00941
611.21706	-0.01288
611.54698	-0.0025
611.87685	-0.00692
612.20668	-0.00103
612.53647	-0.00443
612.86622	-0.00347
613.19593	-0.00286
613.52559	-0.0022
613.85522	-0.00248
614.1848	0.00016
614.51435	-0.00922
614.84385	-0.00625
615.17331	-0.00903
615.50273	-0.01574
615.83211	-0.00492
616.16144	-0.00966
616.49074	-0.01086
616.81999	-0.01274
617.14921	-0.00374
617.47838	-0.01371
617.80751	-0.00558
618.1366	-0.0052
618.46565	-0.00868
618.79465	-0.01078
619.12362	-0.01327
619.45254	-0.00871
619.78142	-0.01192
620.11026	-0.00794
620.43906	-0.00325
620.76782	-0.00789
621.09654	-0.00428
621.42521	-0.00683
621.75384	-0.00458
622.08244	-0.01247
622.41099	-0.01444
622.7395	-0.02139
623.06796	-0.00103
623.39639	-0.00908
623.72477	-0.00548
624.05311	-0.00784
624.38141	-0.0136
624.70967	-0.00439
625.03789	-0.00546
625.36606	-0.0039
625.6942	-0.01038
626.02229	-0.01469
626.35034	-0.01767
626.67835	-0.00258
627.00631	-0.01034
627.33424	0.00232
627.66212	-0.00475
627.98996	0.0018
628.31776	-0.00925
628.64552	-0.01122
628.97323	-0.01245
629.30091	-0.00913
629.62854	-0.00609
629.95613	-0.00911
630.28368	-0.00655
630.61118	-0.0113
630.93864	-0.01703
631.26607	-0.01238
631.59345	-0.01273
631.92078	-0.00541
632.24808	0.00499
632.57533	-0.01
632.90254	-0.00379
633.22971	-0.00971
633.55684	-0.01069
633.88393	-0.01685
634.21097	-0.00685
634.53797	-0.00552
634.86493	-0.01506
635.19184	-0.01787
635.51872	-0.00258
635.84555	-0.01405
636.17234	-0.00303
636.49909	-0.02092
636.82579	-0.00676
637.15245	-0.00976
637.47908	-0.00616
637.80565	-0.01909
638.13219	-0.01594
638.45868	-0.0084
638.78513	-0.01622
639.11154	-0.01218
639.43791	-0.01259
639.76423	-0.01514
640.09051	-0.0154
640.41675	-0.00726
640.74295	-0.01494
641.0691	-0.01857
641.39521	-0.01518
641.72128	-0.00877
642.04731	-0.01054
642.37329	-0.01556
642.69924	-0.0084
643.02513	-0.01149
643.35099	-0.01481
643.6768	-0.00731
644.00257	-0.01702
644.3283	-0.00879
644.65399	-0.00991
644.97963	-0.01133
645.30523	-0.01778
645.63079	-0.01307
645.9563	-0.01318
646.28178	-0.01729
646.6072	-0.01049
646.93259	-0.01324
647.25794	-0.01855
647.58324	-0.01104
647.90849	-0.01205
648.23371	-0.01389
648.55888	-0.01058
648.88401	-0.01933
649.2091	-0.0141
649.53414	-0.01461
649.85914	-0.01568
650.1841	-0.02165
650.50901	-0.01479
650.83389	-0.02027
651.15871	-0.01358
651.4835	-0.00607
651.80824	-0.01521
652.13294	-0.01559
652.4576	-0.01336
652.78221	-0.01476
653.10678	-0.01784
653.43131	-0.01078
653.7558	-0.01853
654.08024	-0.01237
654.40464	-0.00744
654.72899	-0.01126
655.0533	-0.0069
655.37757	-0.00689
655.7018	-0.00594
656.02598	-0.00804
656.35012	-0.00879
656.67421	-0.0124
656.99826	-0.01427
657.32227	-0.01209
657.64624	-0.0131
657.97016	-0.01292
658.29404	-0.01143
658.61788	-0.01037
658.94167	-0.0184
659.26542	-0.01555
659.58912	-0.01516
659.91279	-0.01983
660.2364	-0.02086
660.55998	-0.02244
660.88351	-0.00935
661.207	-0.0128
661.53044	-0.01238
661.85384	-0.0155
662.1772	-0.01334
662.50052	-0.0115
662.82379	-0.01592
663.14701	-0.01228
663.4702	-0.01682
663.79334	-0.0176
664.11643	-0.01664
664.43948	-0.01381
664.76249	-0.01868
665.08546	-0.015
665.40838	-0.0104
665.73126	-0.01122
666.05409	-0.01542
666.37688	-0.01835
666.69963	-0.02118
667.02233	-0.01875
667.34499	-0.01083
667.6676	-0.01851
667.99018	-0.01299
668.3127	-0.01862
668.63519	-0.01159
668.95763	-0.01468
669.28002	-0.01618
669.60237	-0.01684
669.92468	-0.0219
670.24695	-0.0133
670.56917	-0.01304
670.89134	-0.01213
671.21347	-0.01568
671.53556	-0.01275
671.85761	-0.01062
672.1796	-0.01011
672.50156	-0.01821
672.82347	-0.01468
673.14534	-0.01523
673.46716	-0.0157
673.78894	-0.01699
674.11068	-0.0141
674.43237	-0.01618
674.75402	-0.01056
675.07562	-0.00802
675.39718	-0.01351
675.71869	-0.01055
676.04016	-0.01211
676.36159	-0.00893
676.68297	-0.01101
677.00431	-0.01444
677.3256	-0.01364
677.64685	-0.01129
677.96805	-0.01739
678.28921	-0.00734
678.61033	-0.01499
678.9314	-0.01487
679.25243	-0.01929
679.57341	-0.01652
679.89435	-0.01597
680.21524	-0.01694
680.53609	-0.01809
680.8569	-0.01425
681.17766	-0.01459
681.49837	-0.01377
681.81904	-0.01005
682.13967	-0.01489
682.46025	-0.01669
682.78079	-0.01705
683.10128	-0.01576
683.42173	-0.0092
683.74214	-0.02002
684.06249	-0.00902
684.38281	-0.01729
684.70308	-0.0116
685.0233	-0.00891
685.34348	-0.01427
685.66362	-0.00873
685.98371	-0.0145
686.30376	-0.01819
686.62376	-0.00624
686.94372	-0.01937
687.26363	-0.00884
687.58349	-0.01446
687.90332	-0.01325
688.22309	-0.0133
688.54283	-0.01863
688.86251	-0.01348
689.18216	-0.01075
689.50175	-0.01945
689.82131	-0.01822
690.14082	-0.01322
690.46028	-0.02065
690.7797	-0.01777
691.09907	-0.01259
691.4184	-0.00937
691.73768	-0.01455
692.05692	-0.01793
692.37611	-0.01094
692.69526	-0.01637
693.01436	-0.01475
693.33342	-0.01213
693.65243	-0.01399
693.9714	-0.01588
694.29032	-0.01489
694.6092	-0.01686
694.92803	-0.02239
695.24682	-0.01552
695.56556	-0.01204
695.88426	-0.01013
696.20291	-0.00886
696.52151	-0.01068
696.84007	-0.01594
697.15859	-0.01829
697.47706	-0.0139
697.79548	-0.0174
698.11386	-0.01301
698.43219	-0.00821
698.75048	-0.01637
699.06873	-0.01659
699.38692	-0.01287
699.70508	-0.01212
700.02318	-0.01329
700.34124	-0.01801
700.65926	-0.0225
700.97723	-0.01865
701.29515	-0.02461
701.61303	-0.00919
701.93087	-0.00868
702.24866	-0.01101
702.5664	-0.01924
702.88409	-0.01499
703.20175	-0.00723
703.51935	-0.02084
703.83691	-0.01654
704.15443	-0.01387
704.4719	-0.01625
704.78932	-0.01803
705.1067	-0.0175
705.42403	-0.01665
705.74131	-0.01744
706.05855	-0.01629
706.37575	-0.01843
706.6929	-0.01943
707.01	-0.00873
707.32706	-0.01443
707.64407	-0.02337
707.96103	-0.02052
708.27795	-0.01068
708.59483	-0.02199
708.91165	-0.0148
709.22844	-0.02332
709.54517	-0.01523
709.86186	-0.01025
710.17851	-0.01716
710.4951	-0.01405
710.81166	-0.01178
711.12816	-0.01717
711.44462	-0.01799
711.76104	-0.01965
712.0774	-0.0183
712.39372	-0.01002
712.71	-0.0137
713.02623	-0.00979
713.34241	-0.01368
713.65855	-0.01286
713.97464	-0.01514
714.29069	-0.01996
714.60669	-0.01311
714.92264	-0.01774
715.23854	-0.01273
715.5544	-0.01296
715.87022	-0.01265
716.18599	-0.01558
716.50171	-0.01319
716.81738	-0.01422
717.13301	-0.01363
717.44859	-0.01506
717.76413	-0.02219
718.07962	-0.01027
718.39506	-0.00931
718.71046	-0.01937
719.02581	-0.01677
719.34111	-0.01604
719.65637	-0.01973
719.97158	-0.01026
720.28675	-0.02632
720.60187	-0.02005
720.91694	-0.01291
721.23196	-0.01496
721.54694	-0.01657
721.86187	-0.02031
722.17676	-0.02434
722.4916	-0.02252
722.80639	-0.01817
723.12114	-0.02006
723.43583	-0.01436
723.75049	-0.01595
724.06509	-0.01715
724.37965	-0.0209
724.69416	-0.02068
725.00863	-0.01376
725.32305	-0.01128
725.63742	-0.01788
725.95175	-0.02315
726.26602	-0.02661
726.58026	-0.0157
726.89444	-0.01901
727.20858	-0.01499
727.52267	-0.0181
727.83671	-0.01454
728.15071	-0.02239
728.46466	-0.01026
728.77857	-0.01628
729.09242	-0.01879
729.40623	-0.01999
729.72	-0.02468
730.03371	-0.02356
730.34738	-0.02055
730.661	-0.02338
730.97458	-0.02232
731.2881	-0.01531
731.60158	-0.01654
731.91502	-0.01315
732.22841	-0.02021
732.54174	-0.02093
732.85504	-0.01753
733.16828	-0.01746
733.48148	-0.01193
733.79463	-0.00793
734.10773	-0.01435
734.42079	-0.00643
734.7338	-0.01864
735.04676	-0.00582
735.35968	-0.01588
735.67254	-0.01864
735.98536	-0.01383
736.29814	-0.01803
736.61086	-0.01628
736.92354	-0.02059
737.23617	-0.01745
737.54876	-0.0168
737.86129	-0.02453
738.17378	-0.00715
738.48622	-0.01571
738.79862	-0.01552
739.11096	-0.02116
739.42326	-0.01505
739.73551	-0.01831
740.04772	-0.01345
740.35987	-0.01936
740.67198	-0.00265
740.98404	-0.01158
741.29606	-0.01534
741.60802	-0.00459
741.91994	-0.0217
742.23181	-0.02281
742.54364	-0.01833
742.85541	-0.01785
743.16714	-0.0084
743.47882	-0.0126
743.79045	-0.02355
744.10204	-0.01209
744.41358	-0.00853
744.72507	-0.0263
745.03651	-0.02712
745.3479	-0.01283
745.65925	-0.02131
745.97055	-0.01603
746.2818	-0.01791
746.593	-0.01729
746.90415	-0.01193
747.21526	-0.02462
747.52632	-0.01663
747.83733	-0.02817
748.1483	-0.01552
748.45921	-0.01673
748.77008	-0.02431
749.0809	-0.00921
749.39167	-0.01193
749.70239	-0.01471
750.01307	-0.01986
750.3237	-0.01565
750.63428	-0.02118
750.94481	-0.01865
751.25529	-0.02018
751.56573	-0.01979
751.87611	-0.01922
752.18645	-0.01509
752.49674	-0.01841
752.80699	-0.01207
753.11718	-0.02003
753.42733	-0.01698
753.73743	-0.01545
754.04748	-0.01048
754.35748	-0.00906
754.66743	-0.02043
754.97734	-0.00994
755.28719	-0.01694
755.597	-0.01307
755.90676	-0.02403
756.21647	-0.02094
756.52614	-0.00861
756.83575	-0.01416
757.14532	-0.00998
757.45484	-0.01541
757.76431	-0.01086
758.07373	-0.02053
758.3831	-0.01991
758.69243	-0.01587
759.0017	-0.01659
759.31093	-0.02334
759.62011	-0.01369
759.92924	-0.02151
760.23832	-0.01094
760.54736	-0.01457
760.85634	-0.02245
761.16528	-0.0141
761.47417	-0.01265
761.78301	-0.01278
762.0918	-0.01068
762.40054	-0.01689
762.70923	-0.00959
763.01788	-0.00929
763.32647	-0.02133
763.63502	-0.0162
763.94352	-0.00736
764.25197	-0.00967
764.56037	-0.00852
764.86872	-0.00893
765.17702	-0.00985
765.48528	-0.01213
765.79348	-0.01449
766.10164	-0.01661
766.40975	-0.00687
766.71781	-0.01846
767.02582	-0.01564
767.33378	-0.01987
767.64169	-0.01147
767.94955	-0.022
768.25737	-0.00964
768.56513	-0.01303
768.87285	-0.01716
769.18052	-0.02237
769.48813	-0.00766
769.7957	-0.01474
770.10322	-0.01671
770.41069	-0.01511
770.71812	-0.02419
771.02549	-0.01077
771.33281	-0.02327
771.64009	-0.01415
771.94731	-0.00745
772.25449	-0.01919
772.56162	-0.01841
772.86869	-0.01425
773.17572	-0.01299
773.4827	-0.02334
773.78963	-0.02182
774.09651	-0.01501
774.40334	-0.01376
774.71013	-0.01819
775.01686	-0.01855
775.32354	-0.01351
775.63018	-0.01439
775.93676	-0.01406
776.2433	-0.01558
776.54978	-0.02144
776.85622	-0.01273
777.16261	-0.02653
777.46895	-0.01144
777.77523	-0.01652
778.08147	-0.02961
778.38766	-0.01957
778.6938	-0.01583
778.99989	-0.00577
779.30593	-0.01354
779.61192	-0.01586
779.91787	-0.00848
780.22376	-0.01933
780.5296	-0.0196
780.83539	-0.01424
781.14114	-0.01831
781.44683	-0.00489
781.75247	-0.00929
782.05807	-0.02942
782.36361	-0.01934
782.66911	-0.00708
782.97455	-0.02005
783.27995	-0.02626
783.58529	-0.02232
783.89059	-0.01054
784.19583	-0.01171
784.50103	-0.02601
784.80618	-0.00702
785.11127	-0.0097
785.41632	-0.02034
785.72131	-0.00559
786.02626	-0.02535
786.33116	-0.00776
786.636	-0.03125
786.9408	-0.00156
787.24555	-0.00103
787.55025	-0.00661
787.85489	-0.01714
788.15949	-0.00705
788.46404	-0.01636
788.76853	-0.00683
789.07298	-0.01814
789.37738	-0.01442
789.68172	-0.02003
789.98602	-0.01737
790.29027	-0.01534
790.59446	-0.00805
790.89861	-0.01409
791.2027	-0.01053
791.50675	-0.02285
791.81074	-0.01039
792.11469	-0.01193
792.41858	-0.00925
792.72243	-0.00826
793.02622	-0.00657
793.32997	0.00229
793.63366	-0.01025
793.93731	-0.01262
794.2409	-0.01267
794.54444	-0.01343
794.84793	-0.0163
795.15138	-0.01051
795.45477	-0.02586
795.75811	-0.01572
796.0614	-0.02016
796.36464	-0.00458
796.66783	-0.00795
796.97097	-0.02574
797.27406	-0.00924
797.5771	-0.01261
797.88008	-0.0097
798.18302	-0.03197
798.48591	-0.02266
798.78874	-0.01062
799.09153	-0.00883
799.39426	-0.01565
799.69695	-0.01812
799.99958	-0.01748
800.30217	-0.01342
800.6047	-0.0001
800.90718	-0.02661
801.20961	-0.01824
801.51199	-0.0268
801.81432	-0.01455
802.1166	-0.01459
802.41883	-0.01242
802.721	-0.02177
803.02313	-0.00891
803.32521	-0.01081
803.62723	-0.0153
803.9292	-0.02123
804.23113	-0.01092
804.533	-0.02658
804.83482	-0.00459
805.13659	-0.02456
805.43831	-0.01482
805.73998	-0.02272
806.0416	-0.01976
806.34316	-0.02024
806.64468	-0.01482
806.94614	-0.01288
807.24756	-0.01941
807.54892	-0.006
807.85023	-0.0082
808.15149	-0.03113
808.4527	-0.00483
808.75386	-0.01109
809.05496	-0.01889
809.35602	-0.01985
809.65702	-0.01217
809.95798	-0.02293
810.25888	-0.01258
810.55973	0.00058
810.86053	-0.01639
811.16128	-0.02497
811.46197	-0.01758
811.76262	-0.02292
812.06321	-0.01634
812.36376	-0.02443
812.66425	-0.00965
812.96469	-0.0267
813.26508	-0.01225
813.56542	-0.00445
813.8657	-0.02406
814.16594	-0.02235
814.46612	-0.02551
814.76626	-0.02097
815.06634	-0.01087
815.36637	-0.01166
815.66634	-0.01171
815.96627	-0.02004
816.26614	-0.00395
816.56597	-0.01464
816.86574	-0.02746
817.16546	-0.01566
817.46513	-0.01274
817.76475	-0.01418
818.06431	0.00149
818.36382	-0.01569
818.66329	-0.00501
818.9627	-0.00687
819.26206	-0.01004
819.56136	-0.02876
819.86062	-0.01615
820.15982	-0.01633
820.45897	-0.00013
820.75807	-0.02232
821.05712	-0.01514
821.35612	-0.00779
821.65506	-0.01829
821.95396	-0.03746
822.2528	-0.0063
822.55159	-0.01321
822.85032	-0.0215
823.14901	-0.01091
823.44764	-0.02706
823.74622	-0.01078
824.04475	-0.00737
824.34323	-0.00567
824.64166	-0.0212
824.94003	-0.03134
825.23835	-0.02102
825.53662	-0.01405
825.83484	-0.02787
826.13301	-0.02163
826.43112	-0.01538
826.72918	0.00436
827.02719	-0.00015
827.32515	0.00443
827.62305	0.00558
827.92091	-0.01471
828.21871	-0.01501
828.51646	-0.00523
828.81415	-0.01834
829.1118	-0.01346
829.40939	-0.00542
829.70693	-0.01864
830.00442	-0.01928
830.30185	-0.02057
830.59923	-0.00871
830.89657	-0.00786
831.19384	-0.023
831.49107	-0.02663
831.78824	-0.00893
832.08536	-0.0057
832.38243	-0.02043
832.67945	-0.01014
832.97641	-0.02677
833.27333	-0.00246
833.57018	-0.02879
833.86699	-0.01631
834.16375	-0.00366
834.46045	-0.01287
834.7571	-0.02
835.05369	-0.01352
835.35024	-0.02658
835.64673	-0.01857
835.94317	-0.00727
836.23955	-0.01279
836.53589	-0.03056
836.83217	-0.02487
837.1284	-0.01916
837.42457	-0.01586
837.7207	0.00235
838.01677	-0.03109
838.31278	-0.02261
838.60875	-0.01869
838.90466	-0.02789
839.20052	-0.0308
839.49633	-0.01489
839.79208	-0.02604
840.08778	-0.01817
840.38343	-0.01526
840.67903	-0.03138
840.97457	-0.01629
841.27006	-0.0275
841.5655	-0.03065
841.86088	-0.02732
842.15621	-0.01802
842.45149	-0.00595
842.74671	-0.02988
843.04189	-0.01668
843.337	-0.0222
843.63207	-0.05082
843.92708	-0.00471
844.22204	-0.00929
844.51695	0.0013
844.8118	0.00937
845.10661	-0.01593
845.40135	-0.03718
845.69605	0.00136
845.99069	-0.02976
846.28528	-0.01798
846.57981	0.00479
846.8743	-0.01185
847.16872	-0.03169
847.4631	-0.01212
847.75742	-0.00717
848.05169	-0.01545
848.34591	-0.0315
848.64007	-0.046
848.93418	-0.03977
849.22823	-0.02218
849.52224	-0.01101
849.81619	-0.00031
850.11008	-0.01725
850.40393	-0.01718
850.69771	-0.02639
850.99145	-0.03189
851.28513	-0.01918
851.57876	-0.00604
851.87234	-0.02502
852.16586	-0.01611
852.45933	0.0036
852.75274	-0.02033
853.0461	0.00773
853.33941	-0.01812
853.63267	-0.02197
853.92587	-0.01996
854.21901	-0.02651
854.51211	-0.03661
854.80515	-0.0178
855.09813	-0.00037
855.39107	-0.01598
855.68395	-0.00936
855.97677	-0.00468
856.26954	-0.01607
856.56226	-0.00946
856.85492	-0.00706
857.14754	-0.02853
857.44009	-0.02999
857.73259	-0.03876
858.02504	0.01089
858.31744	-0.05597
858.60978	-0.02949
858.90207	-0.04009
859.1943	-0.03051
859.48648	-0.00042
859.77861	-0.0083
860.07068	-0.02292
860.3627	-0.02625
860.65466	-0.00304
860.94657	-0.01396
861.23843	-0.02214
861.53023	-0.00591
861.82198	-0.02426
862.11367	-0.02845
862.40531	-0.02315
862.6969	-0.03115
862.98843	-0.01189
863.27991	-0.02285
863.57133	-0.00957
863.8627	-0.03084
864.15402	-0.00676
864.44528	-0.05048
864.73649	0.02124
865.02764	-0.01052
865.31874	-0.01617
865.60979	-0.02363
865.90078	0.01308
866.19171	-0.03418
866.4826	0.0209
866.77342	-0.0077
