Data from Absorbance__4__15-30-43-703.txt Node

Date: Wed Oct 23 15:30:43 PDT 2024
User: labuser
Spectrometer: USB2G46211
Trigger mode: 4
Integration Time (sec): 2.000000E-2
Scans to average: 1
Electric dark correction enabled: true
Nonlinearity correction enabled: false
Boxcar width: 0
XAxis mode: Wavelengths
Number of Pixels in Spectrum: 2048
>>>>>Begin Spectral Data<<<<<
180.84016	-0
181.20826	-0.21261
181.57633	-0
181.94438	0.18906
182.3124	-0
182.68041	-0
183.0484	-0.8451
183.41636	0.26885
183.78431	-0
184.15223	0.25787
184.52013	-0.31037
184.88801	-1.6902
185.25586	-0
185.6237	-0
185.99151	-0
186.35931	-0.76343
186.72708	0.12803
187.09483	0.42101
187.46256	-0
187.83027	-0
188.19795	-0
188.56562	-0
188.93326	0.10067
189.30088	-0.26885
189.66848	-0.32034
190.03606	0.28945
190.40361	-0
190.77115	-0.07684
191.13866	0.21868
191.50615	0.19883
191.87362	0.21713
192.24107	0.03179
192.60849	0.15726
192.9759	0.284
193.34328	0.78368
193.71064	0.24641
194.07798	1.08432
194.4453	0.06141
194.81259	-0
195.17987	0.26053
195.54712	0.70454
195.91435	0.5356
196.28156	0.72083
196.64874	0.50955
197.01591	0.47182
197.38305	0.8451
197.75017	0.88762
198.11727	0.74355
198.48434	1.05771
198.8514	0.7801
199.21843	0.41413
199.58544	0.69182
199.95243	1.58787
200.31939	1.14449
200.68634	2.3927
201.05326	1.17303
201.42016	1.02531
201.78703	0.76343
202.15389	1.13455
202.52072	0.62081
202.88753	0.95943
203.25432	0.81714
203.62109	1.26407
203.98783	0.65988
204.35456	0.65268
204.72126	0.89526
205.08793	0.66276
205.45459	0.97825
205.82122	0.82229
206.18783	1.25042
206.55442	0.90752
206.92099	1.20149
207.28753	0.87466
207.65405	0.85017
208.02055	1.06982
208.38703	0.97131
208.75348	1.27875
209.11991	0.86355
209.48632	1.12771
209.85271	1.2961
210.21907	1.19455
210.58541	1.21067
210.95173	1.24804
211.31803	1.45637
211.6843	1.29333
212.05055	1.44902
212.41678	1.22447
212.78298	0.99821
213.14917	1.0762
213.51533	0.88314
213.88147	1.05523
214.24758	0.80195
214.61367	2.07659
214.97974	1.17514
215.34579	2.95761
215.71182	1.07964
216.07782	1.26163
216.4438	1.30324
216.80975	1.17523
217.17569	2.12664
217.5416	1.52021
217.90748	1.31883
218.27335	1.64068
218.63919	1.21729
219.00501	1.76461
219.3708	1.08667
219.73658	1.57941
220.10233	1.96776
220.46805	1.30281
220.83376	1.40637
221.19944	1.19736
221.5651	1.33161
221.93073	1.38251
222.29634	1.47027
222.66193	1.47207
223.0275	1.46484
223.39304	1.14413
223.75856	1.81023
224.12406	1.28197
224.48953	2.10538
224.85498	1.25871
225.22041	1.40807
225.58581	1.37447
225.95119	1.4745
226.31655	1.2281
226.68189	1.41337
227.0472	1.49548
227.41249	1.40188
227.77775	1.47081
228.14299	1.39794
228.50821	1.30215
228.8734	1.27994
229.23857	1.47133
229.60372	1.47133
229.96885	1.28994
230.33395	1.38985
230.69903	1.18752
231.06408	1.15415
231.42911	1.17127
231.79412	1.18314
232.1591	1.34088
232.52406	1.263
232.889	1.18188
233.25391	1.19656
233.6188	1.06976
233.98367	1.17076
234.34851	1.145
234.71333	1.00245
235.07813	0.98166
235.4429	0.93481
235.80765	0.87176
236.17237	0.9382
236.53707	0.90294
236.90175	0.8392
237.2664	0.81713
237.63103	0.78529
237.99564	0.7524
238.36022	0.72968
238.72478	0.68644
239.08931	0.71937
239.45382	0.70271
239.81831	0.65793
240.18277	0.6162
240.54721	0.60561
240.91163	0.58118
241.27602	0.53836
241.64039	0.54843
242.00473	0.50394
242.36905	0.48691
242.73335	0.47989
243.09762	0.45973
243.46187	0.4433
243.82609	0.4517
244.19029	0.41242
244.55447	0.42625
244.91862	0.39958
245.28275	0.38092
245.64685	0.36258
246.01093	0.34746
246.37499	0.3475
246.73902	0.342
247.10303	0.31948
247.46701	0.30882
247.83097	0.30727
248.1949	0.27618
248.55882	0.27055
248.9227	0.27023
249.28656	0.26082
249.6504	0.25443
250.01422	0.24813
250.37801	0.25604
250.74177	0.22315
251.10551	0.222
251.46923	0.22424
251.83292	0.21748
252.19659	0.20623
252.56023	0.19604
252.92385	0.20041
253.28744	0.18671
253.65101	0.17397
254.01456	0.1757
254.37808	0.17603
254.74158	0.16268
255.10505	0.16637
255.4685	0.16984
255.83192	0.16067
256.19532	0.17916
256.55869	0.17064
256.92204	0.17414
257.28537	0.16985
257.64867	0.15599
258.01195	0.15216
258.3752	0.1503
258.73842	0.14189
259.10162	0.12355
259.4648	0.12115
259.82795	0.11218
260.19108	0.11384
260.55418	0.10624
260.91726	0.09871
261.28032	0.09047
261.64334	0.08572
262.00635	0.08449
262.36933	0.08388
262.73228	0.08481
263.09521	0.08656
263.45812	0.08039
263.821	0.08532
264.18385	0.07676
264.54668	0.07601
264.90948	0.06228
265.27226	0.0617
265.63502	0.05306
265.99775	0.05647
266.36045	0.04201
266.72313	0.03935
267.08579	0.02951
267.44842	0.03329
267.81102	0.02811
268.1736	0.00453
268.53616	0.00064
268.89869	0.01359
269.26119	-0.00381
269.62367	-0.01332
269.98613	-0.00425
270.34855	-0.00123
270.71096	-0.01596
271.07334	-0.01182
271.43569	-0.02233
271.79802	-0.02255
272.16032	-0.01964
272.5226	-0.02242
272.88485	-0.01863
273.24708	-0.02882
273.60928	-0.01674
273.97146	-0.01675
274.33361	-0.01609
274.69573	-0.02468
275.05783	-0.03125
275.41991	-0.0258
275.78196	-0.01876
276.14398	-0.02521
276.50598	-0.0229
276.86795	-0.03244
277.2299	-0.03287
277.59182	-0.01577
277.95372	-0.01705
278.31559	-0.02061
278.67743	-0.01918
279.03925	-0.02416
279.40105	-0.03174
279.76282	-0.01396
280.12456	-0.02536
280.48628	-0.02497
280.84797	-0.0187
281.20964	-0.0108
281.57128	-0.02664
281.93289	-0.01598
282.29448	-0.02072
282.65604	-0.00841
283.01758	-0.01872
283.37909	-0.01299
283.74058	-0.0065
284.10204	-0.01656
284.46348	-0.01247
284.82488	-0.00343
285.18627	-0.0089
285.54762	-0.01154
285.90896	-0.02199
286.27026	-0.00662
286.63154	-0.01653
286.99279	-0.01259
287.35402	-0.00288
287.71522	-0.00246
288.0764	0.00238
288.43755	0.0043
288.79867	0.01086
289.15977	-0.00344
289.52084	0.00617
289.88189	0.00389
290.24291	0.009
290.6039	0.00283
290.96487	0.00339
291.32581	0.00098
291.68672	0.00474
292.04761	0.00048
292.40848	0.01464
292.76931	0.0179
293.13012	0.01712
293.49091	0.00377
293.85167	0.01694
294.2124	0.0134
294.5731	0.01386
294.93378	0.02096
295.29443	0.02119
295.65506	0.00754
296.01566	0.00266
296.37624	0.02446
296.73678	0.02026
297.09731	0.01331
297.4578	0.01384
297.81827	0.01623
298.17871	0.01074
298.53913	0.01342
298.89952	0.02536
299.25988	0.01914
299.62021	0.01578
299.98052	0.01179
300.34081	0.02018
300.70106	0.01563
301.06129	0.01785
301.4215	0.02407
301.78168	0.01804
302.14183	0.02863
302.50195	0.02203
302.86205	0.0173
303.22212	0.02745
303.58216	0.02092
303.94218	0.02913
304.30217	0.02334
304.66213	0.0201
305.02207	0.01872
305.38198	0.02186
305.74186	0.02273
306.10172	0.02717
306.46155	0.02896
306.82135	0.02016
307.18113	0.02993
307.54088	0.01983
307.9006	0.02566
308.2603	0.02336
308.61997	0.02364
308.97961	0.01401
309.33923	0.0226
309.69881	0.02306
310.05838	0.01642
310.41791	0.02577
310.77742	0.01807
311.1369	0.0227
311.49635	0.02436
311.85578	0.02684
312.21518	0.0282
312.57455	0.02792
312.93389	0.02575
313.29321	0.03463
313.6525	0.02475
314.01177	0.02604
314.371	0.02231
314.73021	0.02179
315.0894	0.02663
315.44855	0.0188
315.80768	0.01376
316.16678	0.02625
316.52585	0.02462
316.8849	0.02218
317.24392	0.02003
317.60291	0.02033
317.96187	0.01958
318.32081	0.02335
318.67972	0.02733
319.0386	0.0138
319.39746	0.02083
319.75629	0.03292
320.11509	0.02659
320.47386	0.02887
320.8326	0.01896
321.19132	0.01913
321.55001	0.0184
321.90867	0.0215
322.26731	0.02221
322.62592	0.01475
322.9845	0.01831
323.34305	0.0215
323.70158	0.02244
324.06007	0.02601
324.41854	0.0263
324.77699	0.02455
325.1354	0.01872
325.49379	0.02185
325.85215	0.02256
326.21048	0.02096
326.56878	0.02492
326.92706	0.02689
327.28531	0.00532
327.64353	0.01822
328.00172	0.01971
328.35989	0.00793
328.71803	0.02408
329.07614	0.02329
329.43422	0.02309
329.79227	0.0173
330.1503	0.02336
330.5083	0.02458
330.86627	0.01763
331.22421	0.02063
331.58213	0.01796
331.94001	0.02395
332.29787	0.01841
332.6557	0.03133
333.01351	0.0073
333.37128	0.02259
333.72903	0.01791
334.08675	0.01951
334.44444	0.02087
334.8021	0.01705
335.15974	0.02359
335.51734	0.02282
335.87492	0.01495
336.23247	0.01844
336.58999	0.01806
336.94749	0.01506
337.30495	0.00376
337.66239	0.01203
338.0198	0.00805
338.37718	0.00563
338.73453	0.00162
339.09186	0.01622
339.44916	0.01893
339.80642	0.01347
340.16366	0.01428
340.52088	0.01008
340.87806	0.01563
341.23521	0.01507
341.59234	0.01237
341.94944	0.0195
342.30651	0.00718
342.66355	0.0109
343.02056	0.01281
343.37755	0.00974
343.7345	0.00873
344.09143	0.0004
344.44833	0.01323
344.8052	0.01376
345.16204	0.00882
345.51885	0.01046
345.87564	0.00607
346.2324	0.00755
346.58912	-0.00081
346.94582	0.01248
347.30249	-0.00287
347.65913	0.00359
348.01575	0.00687
348.37233	0.00583
348.72889	-0.00041
349.08541	0.01398
349.44191	0.01554
349.79838	0.00777
350.15482	0.00927
350.51124	0.01021
350.86762	0.00747
351.22397	0.01111
351.5803	-0.00162
351.9366	-0.00167
352.29286	0.00163
352.6491	0.01363
353.00531	0.0029
353.36149	0.00212
353.71765	0.00633
354.07377	0.0063
354.42986	0.00971
354.78593	0.00337
355.14197	0.00875
355.49797	0.01286
355.85395	0.00455
356.2099	-0
356.56582	-0.00887
356.92171	0.00882
357.27757	-0
357.63341	-0.00378
357.98921	0.01285
358.34499	-0.00333
358.70073	0.00799
359.05645	-0.00042
359.41214	0.00126
359.76779	0.00084
360.12342	0.00413
360.47902	0.00807
360.83459	-0.00123
361.19014	0.00874
361.54565	0.00166
361.90113	-0.00585
362.25658	-0.00249
362.61201	-0.00417
362.9674	0.00376
363.32277	-0.0033
363.6781	0.00287
364.03341	-0.0061
364.38869	0.00779
364.74393	0.00041
365.09915	0.00785
365.45434	-0.01033
365.8095	-0.00285
366.16463	0.01679
366.51973	-0
366.8748	0.00904
367.22984	0.00474
367.58486	-0.00321
367.93984	0.00246
368.29479	0.01256
368.64971	0.00405
369.00461	0.00438
369.35947	-0.00042
369.71431	0.00724
370.06911	-0
370.42388	-0.00455
370.77863	-0.00839
371.13335	-0.00041
371.48803	0.00494
371.84269	0.00483
372.19731	-0.00284
372.55191	0.00446
372.90648	0.00523
373.26101	0.00081
373.61552	-0.00607
373.97	0.00121
374.32444	-0.00239
374.67886	-0.00202
375.03325	0.00479
375.38761	0.00121
375.74193	-0.00243
376.09623	0.00402
376.4505	0.00198
376.80474	0.00475
377.15895	0.00429
377.51312	0.00794
377.86727	0.008
378.22139	-0.00499
378.57548	0.00336
378.92953	0.00478
379.28356	0.00456
379.63756	0.00608
379.99153	-0.00347
380.34546	0.00582
380.69937	0.00614
381.05325	0.00834
381.4071	0.00153
381.76091	-0.0047
382.1147	0.0134
382.46845	-0.00194
382.82218	0.00305
383.17588	0.00528
383.52954	-0.00079
383.88318	0.01252
384.23678	0.00199
384.59036	0.01429
384.9439	0.00437
385.29741	0.0056
385.6509	0.00079
386.00435	-0.00275
386.35777	-0.0008
386.71116	0.00946
387.06453	0.00548
387.41786	0.00661
387.77116	0.00584
388.12443	-0.00643
388.47767	0.00484
388.83088	0.00563
389.18406	0.0019
389.5372	0.00584
389.89032	0.00196
390.24341	-0.00505
390.59647	-0.00077
390.94949	0.00336
391.30249	-0.00186
391.65545	-0.00112
392.00838	0.00277
392.36129	0.004
392.71416	0.00403
393.067	0.01035
393.41981	-0.00108
393.77259	0.00435
394.12534	0.01062
394.47806	-0.00187
394.83075	0.00967
395.18341	0.012
395.53603	-0.00038
395.88863	-0.00216
396.24119	0.00688
396.59373	0.00262
396.94623	0.00428
397.2987	0.00895
397.65114	0.01319
398.00355	0.00169
398.35593	0.00534
398.70828	0.00716
399.0606	-0.00458
399.41288	0.00701
399.76514	0.00446
400.11736	0.01156
400.46956	-0
400.82172	-0.00149
401.17385	0.01932
401.52595	-0.00305
401.87802	0.00113
402.23005	0.00529
402.58206	-0.00117
402.93404	-0.00037
403.28598	-0.00197
403.63789	0.01164
403.98978	0.00517
404.34163	0.00719
404.69344	0.0046
405.04523	0.00197
405.39699	0.01791
405.74871	0.01155
406.10041	0.0109
406.45207	0.00735
406.8037	0.00079
407.1553	0.00827
407.50687	0.00873
407.85841	0.00502
408.20991	-0.00327
408.56139	0.00262
408.91283	-0.00192
409.26424	-0
409.61562	-0.00702
409.96697	0.01579
410.31829	0.00526
410.66957	-0.00636
411.02083	0.00198
411.37205	0.00582
411.72324	-0.00889
412.0744	0.00752
412.42553	0.00595
412.77662	0.0088
413.12769	-0.00187
413.47872	-0.00225
413.82972	0.01375
414.18069	0.00256
414.53163	-0
414.88254	-0.00271
415.23341	-0.00918
415.58425	0.0076
415.93506	-0.00037
416.28584	0.00765
416.63659	0.00413
416.98731	0.00182
417.33799	-0.00117
417.68864	0.00517
418.03926	0.00316
418.38985	-0.00036
418.7404	0.00972
419.09093	0.0082
419.44142	0.00307
419.79188	0.00322
420.14231	0.00854
420.49271	-0.00171
420.84307	0.00437
421.1934	0.01465
421.5437	0.01052
421.89397	0.00536
422.24421	0.00738
422.59441	0.01027
422.94458	0.00642
423.29472	-0.0015
423.64483	-0
423.99491	0.01064
424.34495	0.01226
424.69496	-0.00192
425.04494	0.01343
425.39489	0.00115
425.7448	0.01002
426.09469	0.00793
426.44454	0.0023
426.79436	0.00898
427.14414	0.00698
427.49389	-0.00399
427.84362	-0.00343
428.1933	0.00708
428.54296	0.00146
428.89259	-0.0079
429.24218	0.00594
429.59174	0.00033
429.94126	0.00878
430.29076	0.00998
430.64022	-0.00404
430.98965	0.0086
431.33905	0.0066
431.68841	-0
432.03774	0.01453
432.38704	0.00996
432.73631	0.0145
433.08555	0.00156
433.43475	0.00116
433.78392	0.01848
434.13305	0.00902
434.48216	0.01232
434.83123	0.00111
435.18027	-0.00076
435.52927	0.00683
435.87825	0.01243
436.22719	0.00538
436.5761	-0.00074
436.92497	0.00622
437.27382	0.0106
437.62263	0.00072
437.9714	0.00341
438.32015	0.01374
438.66886	0.00808
439.01754	0.00306
439.36618	-0.00439
439.7148	0.008
440.06338	0.0078
440.41192	0.00682
440.76044	0.00792
441.10892	0.00113
441.45737	0.00072
441.80578	-0.00107
442.15417	0.01193
442.50252	0.01295
442.85083	0.00558
443.19912	0.01643
443.54737	0.00035
443.89558	0.00946
444.24377	0.01058
444.59192	0.00649
444.94004	0.00233
445.28812	0.00279
445.63617	0.00411
445.98419	0.00543
446.33218	0.00458
446.68013	0.00916
447.02805	0.00072
447.37594	0.00932
447.72379	0.0125
448.07161	0.00554
448.41939	0.01028
448.76715	0.00608
449.11487	0.00633
449.46255	0.01202
449.81021	0.00689
450.15783	0.00386
450.50541	0.00607
450.85296	0.01486
451.20048	0.01898
451.54797	0.00969
451.89542	0.0019
452.24284	0.01082
452.59023	0.01217
452.93758	0.00908
453.2849	0.00966
453.63218	0.00331
453.97944	0.0105
454.32665	0.00038
454.67384	0.00598
455.02099	-0.00041
455.36811	0.00788
455.71519	-0.00209
456.06224	0.00874
456.40926	0.00538
456.75624	0.0066
457.10319	-0.00267
457.45011	-0.0061
457.79699	0.0138
458.14384	0.00363
458.49065	0.00868
458.83743	0.01424
459.18418	0.00795
459.53089	0.00434
459.87757	0.01694
460.22422	0.00237
460.57083	0.00589
460.91741	0.0019
461.26395	-0.00376
461.61046	0.00122
461.95694	0.0062
462.30338	0.00661
462.64979	-0.00482
462.99616	0.00797
463.3425	0.00801
463.68881	0.00328
464.03508	0.00457
464.38132	0.00431
464.72753	0.01431
465.0737	0.0132
465.41983	0.00489
465.76593	0.00504
466.112	-0
466.45804	0.00879
466.80404	0.01113
467.15	0.00037
467.49593	0.01093
467.84183	0.00742
468.1877	0.0113
468.53353	0.00604
468.87932	0.00322
469.22508	0.0011
469.57081	0.01261
469.9165	0.01507
470.26216	0.00876
470.60778	-0
470.95337	0.00757
471.29893	0.01215
471.64445	0.01472
471.98993	0.00587
472.33538	0.00489
472.6808	-0.00103
473.02619	0.0096
473.37153	0.00826
473.71685	0.00221
474.06213	0.00868
474.40737	0.00594
474.75258	0.01177
475.09776	0.00651
475.4429	0.00389
475.78801	0.00654
476.13308	0.01089
476.47812	0.00333
476.82312	0.00836
477.16809	0.00812
477.51303	0.00956
477.85793	0.00788
478.20279	0.00576
478.54762	0.00522
478.89242	0.00087
479.23718	0.00991
479.5819	0.00881
479.9266	0.00276
480.27125	0.00421
480.61587	0.00382
480.96046	0.00235
481.30501	0.00512
481.64953	0.00769
481.99401	0.01237
482.33846	0.00695
482.68288	0.01137
483.02725	0.00806
483.3716	0.00568
483.7159	0.01047
484.06018	0.00789
484.40442	0.00674
484.74862	0.00468
485.09279	0.00458
485.43692	0.00295
485.78102	-0.00113
486.12508	0.00408
486.46911	0.00222
486.81311	0.006
487.15706	0.0092
487.50099	0.00987
487.84488	0.00459
488.18873	0.00734
488.53255	0.00834
488.87633	0.00375
489.22008	0.00906
489.56379	0.00966
489.90747	0.00926
490.25111	0.0123
490.59471	0.00963
490.93829	0.00179
491.28182	-0
491.62532	0.00643
491.96879	0.00309
492.31222	0.0091
492.65561	0.00256
492.99897	0.00996
493.3423	0.00076
493.68559	0.0085
494.02884	0.0039
494.37206	0.00434
494.71524	0.01157
495.05839	0.00681
495.4015	0.00677
495.74458	0.0072
496.08762	0.00901
496.43062	-0.00248
496.77359	0.00879
497.11653	-0.00102
497.45942	0.01004
497.80229	0.00439
498.14511	0.0023
498.48791	0.00488
498.83066	0.00441
499.17338	0.01081
499.51607	0.0035
499.85872	0.0095
500.20133	0.00182
500.54391	0.00432
500.88645	0.01024
501.22896	0.00485
501.57143	0.00862
501.91386	0.00485
502.25626	0.00705
502.59862	0.00787
502.94095	0.00405
503.28324	0.00176
503.6255	0.00814
503.96772	0.00856
504.3099	0.0028
504.65205	0.00232
504.99416	-0.00411
505.33624	0.00752
505.67828	0.00158
506.02028	0.00815
506.36225	-0.00079
506.70419	0.00482
507.04608	0.00641
507.38794	0.00053
507.72977	0.00054
508.07155	0.00732
508.41331	0.00851
508.75502	0.00269
509.0967	0.00702
509.43835	0.00865
509.77995	0.00539
510.12153	0.00433
510.46306	0.00896
510.80456	0.00354
511.14602	0.01095
511.48745	0.01067
511.82884	0.00768
512.17019	0.00494
512.51151	-0.00167
512.85279	0.00559
513.19404	0.0085
513.53525	-0.00284
513.87642	-0.00029
514.21756	0.00263
514.55866	0.00557
514.89972	-0.00146
515.24075	0.00177
515.58174	0.00491
515.92269	0.00634
516.26361	0.00523
516.60449	-0.00177
516.94534	0.01155
517.28615	0.00239
517.62692	0.00494
517.96765	0.00675
518.30835	0.00293
518.64902	0.00353
518.98964	0.00389
519.33023	0.00424
519.67078	-0
520.0113	0.00216
520.35178	0.00601
520.69222	0.00944
521.03263	0.01464
521.373	-0.00249
521.71333	0.00868
522.05363	-0.00566
522.39388	-0.00031
522.73411	0.00835
523.07429	0.00712
523.41444	0.01587
523.75455	0.0031
524.09463	-0.00585
524.43467	0.00783
524.77467	0.00736
525.11463	0.00345
525.45456	0.0031
525.79445	-0.00403
526.13431	0.00245
526.47412	0.00624
526.8139	0.00287
527.15365	0.00379
527.49335	0.00124
527.83302	0.0003
528.17265	0.01088
528.51225	-0.00306
528.85181	-0.00152
529.19133	0.00521
529.53081	0.00218
529.87026	-0.00463
530.20967	0.00583
530.54904	-0.00557
530.88838	-0.00496
531.22767	0.00371
531.56694	0.01138
531.90616	0.00512
532.24535	-0.00488
532.5845	0.0039
532.92361	0.0006
533.26268	0.00293
533.60172	-0.00351
533.94072	0.00323
534.27968	-0.00147
534.61861	0.00412
534.9575	-0.00204
535.29635	-0.00736
535.63516	-0.00179
535.97394	-0.0006
536.31268	0.00652
536.65138	0.00029
536.99004	0.00727
537.32867	0.00867
537.66726	-0.00114
538.00581	-0.00169
538.34433	-0.00111
538.6828	-0.00309
539.02124	-0.00779
539.35964	-0.00369
539.69801	0.00258
540.03633	0.00673
540.37462	-0.00257
540.71287	0.00335
541.05109	0.00226
541.38926	0.00366
541.7274	-0.01004
542.0655	0.00486
542.40357	-0.00142
542.74159	0.00257
543.07958	-0
543.41753	-0.00698
543.75544	0.00801
544.09332	-0.00167
544.43115	0.00629
544.76895	0.00336
545.10671	0.00525
545.44444	-0.00723
545.78212	-0.00112
546.11977	0.00082
546.45738	0.00134
546.79495	0.00317
547.13248	0.00026
547.46998	0.00212
547.80744	-0.00133
548.14486	-0.00409
548.48224	0.00109
548.81958	-0.00359
549.15689	0.00529
549.49415	-0.00055
549.83138	-0.00194
550.16858	0.00169
550.50573	-0.00279
550.84285	0.00823
551.17992	-0.00163
551.51696	-0.00677
551.85396	-0.0008
552.19093	-0.00269
552.52785	0.00027
552.86474	-0.00053
553.20159	-0.0027
553.5384	-0.00509
553.87517	0.00588
554.2119	-0.0016
554.5486	-0.01188
554.88525	-0.00442
555.22187	-0.00214
555.55845	-0.00241
555.895	-0.00461
556.2315	-0.00327
556.56796	0.00192
556.90439	0.00195
557.24078	-0.01207
557.57713	-0.00256
557.91344	-0.00459
558.24972	-0.00287
558.58595	-0.00422
558.92215	-0.01402
559.2583	-0.00573
559.59442	-0.00646
559.9305	0.0016
560.26655	-0.00026
560.60255	-0.00129
560.93852	-0.00702
561.27444	0.00544
561.61033	-0.00078
561.94618	-0.00313
562.28199	-0.0083
562.61776	-0.00026
562.9535	0.00283
563.28919	-0.00909
563.62485	-0.00394
563.96046	0.00105
564.29604	-0.00837
564.63158	-0.00081
564.96708	-0.00054
565.30254	-0.01015
565.63797	-0.01296
565.97335	-0.00219
566.3087	-0.00701
566.64401	-0.00914
566.97927	0.00267
567.3145	-0
567.64969	-0.00206
567.98484	-0.01174
568.31996	-0.00074
568.65503	0.00048
568.99006	-0.0075
569.32506	0.0039
569.66002	-0.00888
569.99493	-0.00906
570.32981	0.00107
570.66465	0.00906
570.99945	-0.00205
571.33421	0.00145
571.66893	0.00166
572.00362	-0.00326
572.33826	-0.00298
572.67287	-0.00118
573.00743	0.00367
573.34196	0.00438
573.67644	-0.00485
574.01089	-0.00131
574.3453	-0.006
574.67967	-0.00385
575.014	0.00306
575.34829	-0.00515
575.68254	-0.00172
576.01676	-0.00334
576.35093	-0.00326
576.68506	-0.00085
577.01916	-0.00098
577.35321	-0.00459
577.68723	-0.0069
578.0212	-0.00756
578.35514	-0.0053
578.68904	-0.00566
579.0229	-0.00088
579.35671	-0.00018
579.69049	0.00105
580.02423	-0.00133
580.35793	0.00124
580.69159	0.00045
581.02521	-0.00304
581.35879	-0.00031
581.69234	-0.00425
582.02584	-0.00507
582.3593	0.00141
582.69272	-0.00342
583.02611	-0.00563
583.35945	-0.00268
583.69275	-0.00104
584.02602	-0.00512
584.35924	-0.00609
584.69243	-0.00592
585.02557	-0.0029
585.35868	-0.00624
585.69174	0.00282
586.02477	-0.00213
586.35775	-0.00836
586.6907	-0.00757
587.02361	-0.00779
587.35647	-0.00173
587.6893	-0.005
588.02209	-0.00348
588.35483	-0.00637
588.68754	-0.00482
589.02021	-0.01001
589.35283	-0.00874
589.68542	0.00099
590.01797	-0.00542
590.35047	-0.00204
590.68294	-0.00143
591.01537	0.0006
591.34775	-0.00904
591.6801	-0.00547
592.01241	-0.00711
592.34467	-0.00139
592.6769	-0.00278
593.00909	-0.00502
593.34123	-0.00945
593.67334	-0.00528
594.00541	-0.00409
594.33743	-0.00302
594.66942	-0.00359
595.00136	-0.00641
595.33327	-0.00522
595.66513	-0.0096
595.99696	-0.007
596.32874	-0.01109
596.66048	-0.00652
596.99219	-0.00816
597.32385	-0.0017
597.65547	0.00449
597.98706	-0.00903
598.3186	-0.00792
598.6501	-0.00134
598.98156	-0.00641
599.31298	-0.00264
599.64436	-0.00353
599.9757	-0.00614
600.307	0.00017
600.63826	-0.00411
600.96948	-0.00822
601.30066	-0.00662
601.63179	-0.00191
601.96289	-0.00502
602.29395	-0.00765
602.62496	-0.00709
602.95594	-0.00352
603.28687	-0.0024
603.61776	-0.00188
603.94862	-0.00834
604.27943	-0.00632
604.6102	-0.00432
604.94093	-0.00358
605.27162	-0.00317
605.60227	-0.00842
605.93288	-0.00104
606.26345	-0.0063
606.59398	-0.0024
606.92446	-0.00086
607.25491	0.00089
607.58531	-0.00437
607.91568	-0.00093
608.246	-0.0085
608.57628	-0.00635
608.90652	-0.01017
609.23672	-0.00403
609.56688	-0.00505
609.897	-0.01296
610.22708	-0.0064
610.55711	-0.00482
610.88711	-0.00421
611.21706	-0.01143
611.54698	-0.00755
611.87685	-0.01049
612.20668	-0.0002
612.53647	-0.00499
612.86622	-0.00585
613.19593	-0.00703
613.52559	-0.00647
613.85522	-0.00694
614.1848	-0.00489
614.51435	-0.00733
614.84385	-0.00718
615.17331	-0.00542
615.50273	-0.00803
615.83211	-0.00184
616.16144	-0.00442
616.49074	-0.01167
616.81999	-0.00737
617.14921	-0.00283
617.47838	-0.00678
617.80751	-0.00621
618.1366	-0.01137
618.46565	-0.00954
618.79465	-0.01052
619.12362	-0.0189
619.45254	-0.01328
619.78142	-0.01212
620.11026	-0.01009
620.43906	-0.00074
620.76782	-0.01124
621.09654	-0.00212
621.42521	-0.00703
621.75384	-0.0012
622.08244	-0.01625
622.41099	-0.01247
622.7395	-0.01696
623.06796	-0.00934
623.39639	-0.01193
623.72477	-0.00617
624.05311	-0.01078
624.38141	-0.00933
624.70967	-0.00205
625.03789	-0.01404
625.36606	-0.0087
625.6942	-0.00829
626.02229	-0.01236
626.35034	-0.0057
626.67835	-0.00706
627.00631	-0.01106
627.33424	-0.00727
627.66212	-0.01449
627.98996	-0.01065
628.31776	-0.01274
628.64552	-0.01017
628.97323	-0.01241
629.30091	-0.00729
629.62854	-0.01303
629.95613	-0.01316
630.28368	-0.01216
630.61118	-0.00632
630.93864	-0.01202
631.26607	-0.01786
631.59345	-0.01684
631.92078	-0.00988
632.24808	-0.00132
632.57533	-0.01208
632.90254	-0.00957
633.22971	-0.01353
633.55684	-0.00933
633.88393	-0.00927
634.21097	-0.00914
634.53797	-0.01546
634.86493	-0.01654
635.19184	-0.01363
635.51872	-0.00733
635.84555	-0.01377
636.17234	-0.00646
636.49909	-0.01918
636.82579	-0.01089
637.15245	-0.01218
637.47908	-0.0112
637.80565	-0.01953
638.13219	-0.01421
638.45868	-0.01054
638.78513	-0.01834
639.11154	-0.01118
639.43791	-0.01112
639.76423	-0.01654
640.09051	-0.01794
640.41675	-0.00913
640.74295	-0.01944
641.0691	-0.02163
641.39521	-0.01182
641.72128	-0.00993
642.04731	-0.0079
642.37329	-0.01317
642.69924	-0.0126
643.02513	-0.01403
643.35099	-0.01313
643.6768	-0.00936
644.00257	-0.01837
644.3283	-0.01272
644.65399	-0.00917
644.97963	-0.01499
645.30523	-0.01982
645.63079	-0.01559
645.9563	-0.00896
646.28178	-0.01772
646.6072	-0.00421
646.93259	-0.01661
647.25794	-0.0203
647.58324	-0.00773
647.90849	-0.01545
648.23371	-0.01789
648.55888	-0.01309
648.88401	-0.01696
649.2091	-0.01108
649.53414	-0.0165
649.85914	-0.01608
650.1841	-0.01776
650.50901	-0.01347
650.83389	-0.01917
651.15871	-0.01397
651.4835	-0.00753
651.80824	-0.01538
652.13294	-0.01681
652.4576	-0.01353
652.78221	-0.01728
653.10678	-0.0076
653.43131	-0.01225
653.7558	-0.01313
654.08024	-0.01254
654.40464	-0.00899
654.72899	-0.00763
655.0533	-0.00842
655.37757	-0.01068
655.7018	-0.0077
656.02598	-0.00802
656.35012	-0.00892
656.67421	-0.0109
656.99826	-0.00887
657.32227	-0.00934
657.64624	-0.011
657.97016	-0.0094
658.29404	-0.01176
658.61788	-0.0109
658.94167	-0.01912
659.26542	-0.01378
659.58912	-0.00833
659.91279	-0.02183
660.2364	-0.01413
660.55998	-0.01882
660.88351	-0.01442
661.207	-0.01637
661.53044	-0.01902
661.85384	-0.01784
662.1772	-0.01353
662.50052	-0.01471
662.82379	-0.01058
663.14701	-0.01397
663.4702	-0.01488
663.79334	-0.01501
664.11643	-0.01619
664.43948	-0.01314
664.76249	-0.01545
665.08546	-0.0139
665.40838	-0.00478
665.73126	-0.01183
666.05409	-0.02245
666.37688	-0.02047
666.69963	-0.0188
667.02233	-0.01828
667.34499	-0.00949
667.6676	-0.01585
667.99018	-0.01231
668.3127	-0.02418
668.63519	-0.00527
668.95763	-0.01892
669.28002	-0.01421
669.60237	-0.02339
669.92468	-0.01844
670.24695	-0.01198
670.56917	-0.01427
670.89134	-0.00567
671.21347	-0.02215
671.53556	-0.01538
671.85761	-0.01304
672.1796	-0.01297
672.50156	-0.01964
672.82347	-0.00876
673.14534	-0.01224
673.46716	-0.0127
673.78894	-0.01696
674.11068	-0.01236
674.43237	-0.01762
674.75402	-0.0116
675.07562	-0.00841
675.39718	-0.01984
675.71869	-0.01136
676.04016	-0.00759
676.36159	-0.00847
676.68297	-0.01415
677.00431	-0.01398
677.3256	-0.01214
677.64685	-0.00513
677.96805	-0.01924
678.28921	-0.00858
678.61033	-0.0139
678.9314	-0.01463
679.25243	-0.02194
679.57341	-0.01564
679.89435	-0.01531
680.21524	-0.01627
680.53609	-0.01994
680.8569	-0.01755
681.17766	-0.01287
681.49837	-0.015
681.81904	-0.01087
682.13967	-0.01941
682.46025	-0.01666
682.78079	-0.01592
683.10128	-0.01271
683.42173	-0.02025
683.74214	-0.01555
684.06249	-0.01425
684.38281	-0.01726
684.70308	-0.01198
685.0233	-0.01117
685.34348	-0.01319
685.66362	-0.00932
685.98371	-0.00762
686.30376	-0.01518
686.62376	-0.01001
686.94372	-0.02061
687.26363	-0.01743
687.58349	-0.01119
687.90332	-0.01233
688.22309	-0.01152
688.54283	-0.02577
688.86251	-0.01498
689.18216	-0.01815
689.50175	-0.0214
689.82131	-0.00885
690.14082	-0.01582
690.46028	-0.01108
690.7797	-0.01602
691.09907	-0.01623
691.4184	-0.01174
691.73768	-0.00899
692.05692	-0.01127
692.37611	-0.00803
692.69526	-0.01765
693.01436	-0.01782
693.33342	-0.01254
693.65243	-0.01418
693.9714	-0.01131
694.29032	-0.01373
694.6092	-0.01816
694.92803	-0.01631
695.24682	-0.01752
695.56556	-0.0181
695.88426	-0.0164
696.20291	-0.01403
696.52151	-0.013
696.84007	-0.01633
697.15859	-0.01653
697.47706	-0.0165
697.79548	-0.0167
698.11386	-0.0096
698.43219	-0.00885
698.75048	-0.01588
699.06873	-0.01609
699.38692	-0.01695
699.70508	-0.00785
700.02318	-0.01441
700.34124	-0.01658
700.65926	-0.02691
700.97723	-0.01862
701.29515	-0.02318
701.61303	-0.01193
701.93087	-0.01507
702.24866	-0.01441
702.5664	-0.01713
702.88409	-0.01912
703.20175	-0.01729
703.51935	-0.01729
703.83691	-0.01884
704.15443	-0.02046
704.4719	-0.01715
704.78932	-0.01702
705.1067	-0.02534
705.42403	-0.01807
705.74131	-0.01223
706.05855	-0.01602
706.37575	-0.01568
706.6929	-0.01317
707.01	-0.01454
707.32706	-0.0135
707.64407	-0.02244
707.96103	-0.01642
708.27795	-0.01269
708.59483	-0.0153
708.91165	-0.01896
709.22844	-0.01793
709.54517	-0.0192
709.86186	-0.01185
710.17851	-0.0157
710.4951	-0.02015
710.81166	-0.00713
711.12816	-0.01617
711.44462	-0.01843
711.76104	-0.02081
712.0774	-0.01542
712.39372	-0.01167
712.71	-0.01976
713.02623	-0.01256
713.34241	-0.01179
713.65855	-0.01376
713.97464	-0.01886
714.29069	-0.02156
714.60669	-0.01119
714.92264	-0.01322
715.23854	-0.01413
715.5544	-0.01365
715.87022	-0.01755
716.18599	-0.0175
716.50171	-0.01489
716.81738	-0.01617
717.13301	-0.01753
717.44859	-0.01502
717.76413	-0.01684
718.07962	-0.009
718.39506	-0.01001
718.71046	-0.01859
719.02581	-0.02063
719.34111	-0.01375
719.65637	-0.01263
719.97158	-0.01274
720.28675	-0.02377
720.60187	-0.01547
720.91694	-0.01134
721.23196	-0.00983
721.54694	-0.02317
721.86187	-0.01949
722.17676	-0.02021
722.4916	-0.02018
722.80639	-0.02501
723.12114	-0.01899
723.43583	-0.00881
723.75049	-0.01277
724.06509	-0.01503
724.37965	-0.02268
724.69416	-0.02141
725.00863	-0.00559
725.32305	-0.01432
725.63742	-0.02456
725.95175	-0.01842
726.26602	-0.02735
726.58026	-0.01777
726.89444	-0.01897
727.20858	-0.01002
727.52267	-0.01597
727.83671	-0.02
728.15071	-0.01733
728.46466	-0.01392
728.77857	-0.01967
729.09242	-0.01664
729.40623	-0.01784
729.72	-0.01993
730.03371	-0.02046
730.34738	-0.01974
730.661	-0.01953
730.97458	-0.01868
731.2881	-0.01604
731.60158	-0.00913
731.91502	-0.01099
732.22841	-0.02591
732.54174	-0.01721
732.85504	-0.01696
733.16828	-0.01688
733.48148	-0.01242
733.79463	-0.01564
734.10773	-0.01457
734.42079	-0.0094
734.7338	-0.02079
735.04676	-0.00632
735.35968	-0.01583
735.67254	-0.01971
735.98536	-0.0208
736.29814	-0.01882
736.61086	-0.01595
736.92354	-0.0251
737.23617	-0.01537
737.54876	-0.02402
737.86129	-0.01598
738.17378	-0.00769
738.48622	-0.01195
738.79862	-0.01748
739.11096	-0.02082
739.42326	-0.01319
739.73551	-0.01307
740.04772	-0.01434
740.35987	-0.02181
740.67198	-0.01377
740.98404	-0.01926
741.29606	-0.02289
741.60802	-0.01221
741.91994	-0.02516
742.23181	-0.02117
742.54364	-0.01827
742.85541	-0.01844
743.16714	-0.00702
743.47882	-0.01385
743.79045	-0.02283
744.10204	-0.01695
744.41358	-0.00646
744.72507	-0.02395
745.03651	-0.0241
745.3479	-0.00978
745.65925	-0.01562
745.97055	-0.02129
746.2818	-0.01421
746.593	-0.02282
746.90415	-0.01488
747.21526	-0.0145
747.52632	-0.01927
747.83733	-0.02277
748.1483	-0.01208
748.45921	-0.016
748.77008	-0.02492
749.0809	-0.0158
749.39167	-0.0205
749.70239	-0.01498
750.01307	-0.02014
750.3237	-0.01692
750.63428	-0.03019
750.94481	-0.01468
751.25529	-0.02045
751.56573	-0.01711
751.87611	-0.01851
752.18645	-0.01339
752.49674	-0.01966
752.80699	-0.02786
753.11718	-0.0174
753.42733	-0.01366
753.73743	-0.02062
754.04748	-0.00909
754.35748	-0.01263
754.66743	-0.0128
754.97734	-0.01248
755.28719	-0.01297
755.597	-0.0162
755.90676	-0.01136
756.21647	-0.01748
756.52614	-0.00796
756.83575	-0.01441
757.14532	-0.01112
757.45484	-0.01415
757.76431	-0.00702
758.07373	-0.01536
758.3831	-0.01985
758.69243	-0.0135
759.0017	-0.01066
759.31093	-0.02072
759.62011	-0.0165
759.92924	-0.02627
760.23832	-0.00867
760.54736	-0.0161
760.85634	-0.01917
761.16528	-0.01797
761.47417	-0.0186
761.78301	-0.02344
762.0918	-0.01634
762.40054	-0.01985
762.70923	-0.00717
763.01788	-0.01194
763.32647	-0.01858
763.63502	-0.01083
763.94352	-0.01643
764.25197	-0.0058
764.56037	-0.01391
764.86872	-0.01277
765.17702	-0.01113
765.48528	-0.00625
765.79348	-0
766.10164	-0.01619
766.40975	-0.01754
766.71781	-0.00949
767.02582	-0.01703
767.33378	-0.01414
767.64169	-0.01666
767.94955	-0.01569
768.25737	-0.01724
768.56513	-0.01404
768.87285	-0.01995
769.18052	-0.02484
769.48813	-0.01507
769.7957	-0.00608
770.10322	-0.02034
770.41069	-0.0191
770.71812	-0.02303
771.02549	-0.00805
771.33281	-0.01942
771.64009	-0.01524
771.94731	-0.01388
772.25449	-0.02557
772.56162	-0.02146
772.86869	-0.00951
773.17572	-0.01925
773.4827	-0.02645
773.78963	-0.01422
774.09651	-0.02022
774.40334	-0.01735
774.71013	-0.01272
775.01686	-0.02864
775.32354	-0.01427
775.63018	-0.01141
775.93676	-0.01399
776.2433	-0.0172
776.54978	-0.01718
776.85622	-0.02287
777.16261	-0.02646
777.46895	-0.01737
777.77523	-0.01218
778.08147	-0.02413
778.38766	-0.0178
778.6938	-0.03055
778.99989	-0.01518
779.30593	-0.0057
779.61192	-0.01103
779.91787	-0.01751
780.22376	-0.01883
780.5296	-0.02119
780.83539	-0.00922
781.14114	-0.01533
781.44683	-0.00613
781.75247	-0.01268
782.05807	-0.02166
782.36361	-0.02014
782.66911	-0.00701
782.97455	-0.0143
783.27995	-0.02134
783.58529	-0.01907
783.89059	-0.02068
784.19583	-0.00516
784.50103	-0.02187
784.80618	-0.00832
785.11127	-0.00735
785.41632	-0.01002
785.72131	-0.0096
786.02626	-0.01235
786.33116	-0.01099
786.636	-0.01829
786.9408	-0.00392
787.24555	-0.00798
787.55025	-0.00931
787.85489	-0.01389
788.15949	-0.01292
788.46404	-0.01491
788.76853	-0.01341
789.07298	-0.01374
789.37738	-0.01869
789.68172	-0.01603
789.98602	-0.02077
790.29027	-0.02269
790.59446	-0.00201
790.89861	-0.02806
791.2027	-0.01583
791.50675	-0.0193
791.81074	-0.01837
792.11469	-0.02089
792.41858	-0.01566
792.72243	-0.02699
793.02622	-0.02015
793.32997	0.00094
793.63366	-0.01063
793.93731	-0.00516
794.2409	-0.00779
794.54444	-0.00943
794.84793	-0.01422
795.15138	-0.01145
795.45477	-0.01894
795.75811	-0.01672
796.0614	-0.01348
796.36464	-0.00449
796.66783	-0.01502
796.97097	-0.01634
797.27406	-0.01865
797.5771	-0.01308
797.88008	-0.01183
798.18302	-0.03076
798.48591	-0.0186
798.78874	-0.01682
799.09153	-0.00874
799.39426	-0.00814
799.69695	-0.0115
799.99958	-0.02206
800.30217	-0.01273
800.6047	-0.00775
800.90718	-0.02049
801.20961	-0.01398
801.51199	-0.02489
801.81432	-0.00244
802.1166	0.00123
802.41883	-0.00988
802.721	-0.01251
803.02313	-0.01253
803.32521	-0.01872
803.62723	-0.01457
803.9292	-0.02175
804.23113	-0.01457
804.533	-0.01247
804.83482	-0.00702
805.13659	-0.0275
805.43831	-0.01472
805.73998	-0.02558
806.0416	-0.01725
806.34316	-0.01767
806.64468	-0.01598
806.94614	-0.01528
807.24756	-0.01678
807.54892	-0.02559
807.85023	-0.0264
808.15149	-0.01308
808.4527	-0.01004
808.75386	-0.00277
809.05496	-0.01673
809.35602	-0.02996
809.65702	-0.0183
809.95798	-0.03244
810.25888	-0.01178
810.55973	-0.01036
810.86053	-0.02385
811.16128	-0.01011
811.46197	-0.02802
811.76262	-0.02208
812.06321	-0.00523
812.36376	-0.01709
812.66425	-0.01314
812.96469	-0.03143
813.26508	-0.01703
813.56542	-0.01639
813.8657	-0.02182
814.16594	-0.01052
814.46612	-0.02688
814.76626	-0.0231
815.06634	-0.01301
815.36637	-0.01305
815.66634	-0.01537
815.96627	-0.02364
816.26614	-0.01508
816.56597	-0.01074
816.86574	-0.01236
817.16546	-0.0163
817.46513	-0.02937
817.76475	-0.01636
818.06431	-0.01356
818.36382	-0.02588
818.66329	-0.00245
818.9627	-0.01989
819.26206	-0.01879
819.56136	-0.01296
819.86062	-0.02843
820.15982	-0.02564
820.45897	-0.00719
820.75807	-0.02219
821.05712	-0.0295
821.35612	-0.02094
821.65506	-0.02068
821.95396	-0.02209
822.2528	-0.0105
822.55159	-0.01903
822.85032	-0.03587
823.14901	-0.02213
823.44764	-0.02692
823.74622	-0.02016
824.04475	-0.0187
824.34323	-0.0199
824.64166	-0.02105
824.94003	-0.03932
825.23835	-0.01642
825.53662	-0.02914
825.83484	-0.01986
826.13301	-0.01621
826.43112	-0.01611
826.72918	-0.00268
827.02719	-0.01878
827.32515	-0.01347
827.62305	-0.0094
827.92091	-0.02212
828.21871	-0.01582
828.51646	-0.02379
828.81415	-0.02015
829.1118	-0.01731
829.40939	-0.00525
829.70693	-0.01848
830.00442	-0.01598
830.30185	-0.02249
830.59923	-0
830.89657	-0.02684
831.19384	-0.03121
831.49107	-0.01781
831.78824	-0.01091
832.08536	-0.01527
832.38243	-0.01804
832.67945	-0.00112
832.97641	-0.02443
833.27333	0.00228
833.57018	-0.01966
833.86699	-0.02396
834.16375	-0.01145
834.46045	-0.01945
834.7571	-0.01523
835.05369	-0.01806
835.35024	-0.02053
835.64673	-0.03484
835.94317	0.01084
836.23955	-0.02841
836.53589	-0.005
836.83217	-0.01315
837.1284	-0.01273
837.42457	-0.03074
837.7207	-0.01752
838.01677	-0.03474
838.31278	-0.02877
838.60875	-0.02489
838.90466	-0.01075
839.20052	-0.02412
839.49633	-0.01336
839.79208	-0.02317
840.08778	-0.02332
840.38343	-0.01905
840.67903	-0.00835
840.97457	-0.02456
841.27006	-0.03417
841.5655	-0.0264
841.86088	-0.01872
842.15621	-0.02067
842.45149	0.00579
842.74671	-0.01803
843.04189	-0.01497
843.337	-0.01766
843.63207	-0.03437
843.92708	-0.01903
844.22204	-0.01497
844.51695	-0.01079
844.8118	-0.00944
845.10661	-0.00634
845.40135	-0.02126
845.69605	-0.01127
845.99069	-0.02791
846.28528	-0.02243
846.57981	-0.02293
846.8743	-0.0132
847.16872	-0.01847
847.4631	-0.01351
847.75742	-0.03501
848.05169	-0.00849
848.34591	-0.02943
848.64007	-0.04238
848.93418	-0.0343
849.22823	-0.01831
849.52224	-0.00717
849.81619	-0.00368
850.11008	-0.02245
850.40393	-0.01871
850.69771	-0.02063
850.99145	-0.0141
851.28513	-0.01142
851.57876	0.0058
851.87234	-0.02469
852.16586	-0.02725
852.45933	0.01796
852.75274	-0.02583
853.0461	-0.02146
853.33941	-0.00998
853.63267	-0
853.92587	-0.002
854.21901	-0.01228
854.51211	-0.03627
854.80515	-0.00443
855.09813	-0.01295
855.39107	-0.03281
855.68395	-0.01562
855.97677	0.01322
856.26954	-0.0179
856.56226	-0.01356
856.85492	-0.0111
857.14754	-0.02815
857.44009	-0.04367
857.73259	-0.03838
858.02504	0.01127
858.31744	-0.03369
858.60978	-0.022
858.90207	-0.02768
859.1943	-0.03011
859.48648	-0.00502
859.77861	-0.02568
860.07068	-0.02976
860.3627	-0.03082
860.65466	-0
860.94657	-0.01085
861.23843	-0.00826
861.53023	0.02254
861.82198	-0.02952
862.11367	-0.01142
862.40531	-0.04425
862.6969	-0
862.98843	-0.01422
863.27991	-0.02512
863.57133	-0.00607
863.8627	-0.03327
864.15402	-0.01239
864.44528	-0.04999
864.73649	-0.02073
865.02764	-0.01325
865.31874	0.0032
865.60979	-0.05109
865.90078	-0.04469
866.19171	-0.02382
866.4826	0.00705
866.77342	-0.04101
